t_abs_unix,t_rel_s,exg_status,exg_ch1_24bit,exg_ch2_24bit,device_timestamp
1756894095.1920657,0.0,128,1334170,771435,3599725
1756894095.192423,0.0003573894500732422,128,1381205,770930,3599757
1756894095.192423,0.0003573894500732422,128,1395740,771675,3599789
1756894095.192423,0.0003573894500732422,128,1382765,772705,3599821
1756894095.192423,0.0003573894500732422,128,1349435,770900,3599853
1756894095.192423,0.0003573894500732422,128,1293015,771100,3599885
1756894095.192423,0.0003573894500732422,128,1144550,747440,3599917
1756894095.192423,0.0003573894500732422,128,894870,724170,3599949
1756894095.192423,0.0003573894500732422,128,696435,725960,3599981
1756894095.192423,0.0003573894500732422,128,406980,726095,3600013
1756894095.192423,0.0003573894500732422,128,114425,733145,3600045
1756894095.192423,0.0003573894500732422,128,-35580,739300,3600077
1756894095.192423,0.0003573894500732422,128,316935,762860,3600109
1756894095.192423,0.0003573894500732422,128,543360,766395,3600141
1756894095.192423,0.0003573894500732422,128,688560,780790,3600173
1756894095.192423,0.0003573894500732422,128,876280,796690,3600205
1756894095.192423,0.0003573894500732422,128,1084780,787355,3600237
1756894095.192423,0.0003573894500732422,128,1091255,772385,3600269
1756894095.192423,0.0003573894500732422,128,1155355,770365,3600301
1756894095.192423,0.0003573894500732422,128,1232245,769870,3600333
1756894095.2097275,0.01766180992126465,128,1303945,771080,3600365
1756894095.2097275,0.01766180992126465,128,1360910,770200,3600397
1756894095.2097275,0.01766180992126465,128,1395475,771930,3600429
1756894095.2097275,0.01766180992126465,128,1388660,771765,3600461
1756894095.2097275,0.01766180992126465,128,1369620,772840,3600493
1756894095.2273567,0.03529095649719238,128,1326430,768780,3600525
1756894095.2273567,0.03529095649719238,128,1239740,767030,3600557
1756894095.2273567,0.03529095649719238,128,1028800,732910,3600589
1756894095.2273567,0.03529095649719238,128,783380,724785,3600621
1756894095.2273567,0.03529095649719238,128,581300,720465,3600653
1756894095.2273567,0.03529095649719238,128,243595,730065,3600685
1756894095.2273567,0.03529095649719238,128,15575,734025,3600717
1756894095.2273567,0.03529095649719238,128,54855,748035,3600749
1756894095.2273567,0.03529095649719238,128,493495,764645,3600781
1756894095.2273567,0.03529095649719238,128,613370,775750,3600813
1756894095.2273567,0.03529095649719238,128,759550,780970,3600845
1756894095.2283568,0.03629112243652344,128,1019205,802110,3600877
1756894095.2290773,0.03701162338256836,128,1087435,788195,3600909
1756894095.2290773,0.03701162338256836,128,1119820,770150,3600941
1756894095.2290773,0.03701162338256836,128,1192530,769850,3600973
1756894095.2290773,0.03701162338256836,128,1272660,769335,3601005
1756894095.2290773,0.03701162338256836,128,1337240,772650,3601037
1756894095.2290773,0.03701162338256836,128,1383570,770225,3601069
1756894095.2301135,0.03804779052734375,128,1397775,773480,3601101
1756894095.2351434,0.043077707290649414,128,1384290,771150,3601133
1756894095.2351434,0.043077707290649414,128,1350605,770775,3601165
1756894095.2351434,0.043077707290649414,128,1293980,770225,3601197
1756894095.2351434,0.043077707290649414,128,1142170,747430,3601229
1756894095.2351434,0.043077707290649414,128,893630,722970,3601261
1756894095.2420557,0.049989938735961914,128,694735,724825,3601293
1756894095.2420557,0.049989938735961914,128,390400,727180,3601325
1756894095.2420557,0.049989938735961914,128,103440,731685,3601357
1756894095.2420557,0.049989938735961914,128,-33835,740315,3601389
1756894095.2420557,0.049989938735961914,128,331590,762940,3601421
1756894095.2420557,0.049989938735961914,128,548760,765275,3601453
1756894095.243239,0.05117321014404297,128,695320,781670,3601485
1756894095.243239,0.05117321014404297,128,764895,782040,3601517
1756894095.243239,0.05117321014404297,128,1024810,801570,3601549
1756894095.243239,0.05117321014404297,128,1095425,771120,3601581
1756894095.243239,0.05117321014404297,128,1160350,770025,3601613
1756894095.243239,0.05117321014404297,128,1237745,771560,3601645
1756894095.243239,0.05117321014404297,128,1307940,770225,3601677
1756894095.243239,0.05117321014404297,128,1364135,772020,3601709
1756894095.243239,0.05117321014404297,128,1397415,771640,3601741
1756894095.243239,0.05117321014404297,128,1390245,771230,3601773
1756894095.243239,0.05117321014404297,128,1370405,772295,3601805
1756894095.243239,0.05117321014404297,128,1327545,770540,3601837
1756894095.2809365,0.08887076377868652,128,1237180,765440,3601869
1756894095.284941,0.09287524223327637,128,1023660,732515,3601901
1756894095.284941,0.09287524223327637,128,780770,725750,3601933
1756894095.284941,0.09287524223327637,128,571015,720515,3601965
1756894095.284941,0.09287524223327637,128,224745,730675,3601997
1756894095.2929835,0.10091781616210938,128,-4235,735620,3602029
1756894095.2929835,0.10091781616210938,128,49055,747945,3602061
1756894095.2929835,0.10091781616210938,128,499655,766490,3602093
1756894095.2929835,0.10091781616210938,128,620900,774715,3602125
1756894095.2929835,0.10091781616210938,128,701230,780590,3602157
1756894095.2929835,0.10091781616210938,128,894220,796825,3602189
1756894095.2929835,0.10091781616210938,128,1092820,787890,3602221
1756894095.3093612,0.11729550361633301,128,1125190,769320,3602253
1756894095.3093612,0.11729550361633301,128,1198725,769995,3602285
1756894095.3093612,0.11729550361633301,128,1277805,770330,3602317
1756894095.3093612,0.11729550361633301,128,1341245,770765,3602349
1756894095.3093612,0.11729550361633301,128,1385140,770830,3602381
1756894095.3093612,0.11729550361633301,128,1399910,772555,3602413
1756894095.3093612,0.11729550361633301,128,1386185,772735,3602445
1756894095.3093612,0.11729550361633301,128,1351110,771850,3602477
1756894095.3093612,0.11729550361633301,128,1292765,771325,3602509
1756894095.3093612,0.11729550361633301,128,1137795,747625,3602541
1756894095.3093612,0.11729550361633301,128,889435,726465,3602573
1756894095.3093612,0.11729550361633301,128,693225,726950,3602605
1756894095.3093612,0.11729550361633301,128,396365,725665,3602637
1756894095.3093612,0.11729550361633301,128,110810,733410,3602669
1756894095.3093612,0.11729550361633301,128,-23850,738925,3602701
1756894095.3093612,0.11729550361633301,128,353765,766000,3602733
1756894095.3093612,0.11729550361633301,128,553220,767080,3602765
1756894095.3093612,0.11729550361633301,128,621070,776695,3602797
1756894095.3093612,0.11729550361633301,128,769835,783350,3602829
1756894095.3093612,0.11729550361633301,128,1033485,800255,3602861
1756894095.324866,0.13280034065246582,128,1098645,771855,3602893
1756894095.324866,0.13280034065246582,128,1164845,770010,3602925
1756894095.3259358,0.13387012481689453,128,1242650,770495,3602957
1756894095.3259358,0.13387012481689453,128,1312960,771935,3602989
1756894095.3259358,0.13387012481689453,128,1368620,772085,3603021
1756894095.3259358,0.13387012481689453,128,1400135,774445,3603053
1756894095.3259358,0.13387012481689453,128,1391755,772515,3603085
1756894095.3259358,0.13387012481689453,128,1371465,773655,3603117
1756894095.3259358,0.13387012481689453,128,1327555,771050,3603149
1756894095.3259358,0.13387012481689453,128,1232915,765045,3603181
1756894095.3259358,0.13387012481689453,128,1013010,734190,3603213
1756894095.3349419,0.14287614822387695,128,770135,724990,3603245
1756894095.3349419,0.14287614822387695,128,572060,721930,3603277
1756894095.3349419,0.14287614822387695,128,264935,730570,3603309
1756894095.3349419,0.14287614822387695,128,40910,735555,3603341
1756894095.3349419,0.14287614822387695,128,124790,752010,3603373
1756894095.3349419,0.14287614822387695,128,511755,765795,3603405
1756894095.3349419,0.14287614822387695,128,557350,769795,3603437
1756894095.3349419,0.14287614822387695,128,706315,781385,3603469
1756894095.3349419,0.14287614822387695,128,906605,800210,3603501
1756894095.3349419,0.14287614822387695,128,1092925,784575,3603533
1756894095.3349419,0.14287614822387695,128,1128910,771600,3603565
1756894095.3349419,0.14287614822387695,128,1202245,770405,3603597
1756894095.3349419,0.14287614822387695,128,1280790,772415,3603629
1756894095.3349419,0.14287614822387695,128,1343130,772970,3603661
1756894095.3420756,0.1500098705291748,128,1386805,771215,3603693
1756894095.3420756,0.1500098705291748,128,1399850,775910,3603725
1756894095.3420756,0.1500098705291748,128,1384695,772010,3603757
1756894095.3420756,0.1500098705291748,128,1348320,770680,3603789
1756894095.3420756,0.1500098705291748,128,1287900,772110,3603821
1756894095.3420756,0.1500098705291748,128,1126270,745830,3603853
1756894095.3420756,0.1500098705291748,128,875515,724900,3603885
1756894095.3443763,0.15231060981750488,128,685970,727105,3603917
1756894095.3443763,0.15231060981750488,128,422635,729065,3603949
1756894095.3443763,0.15231060981750488,128,132385,732395,3603981
1756894095.3443763,0.15231060981750488,128,7540,740055,3604013
1756894095.3443763,0.15231060981750488,128,389410,765290,3604045
1756894095.3443763,0.15231060981750488,128,509905,765870,3604077
1756894095.3443763,0.15231060981750488,128,629440,777520,3604109
1756894095.3443763,0.15231060981750488,128,779985,784035,3604141
1756894095.3443763,0.15231060981750488,128,1044135,802625,3604173
1756894095.3443763,0.15231060981750488,128,1099860,770880,3604205
1756894095.3443763,0.15231060981750488,128,1166900,770395,3604237
1756894095.3443763,0.15231060981750488,128,1244610,770480,3604269
1756894095.3443763,0.15231060981750488,128,1313855,771210,3604301
1756894095.3443763,0.15231060981750488,128,1368395,770330,3604333
1756894095.3443763,0.15231060981750488,128,1399975,773185,3604365
1756894095.3443763,0.15231060981750488,128,1391755,773870,3604397
1756894095.3443763,0.15231060981750488,128,1369045,770715,3604429
1756894095.3443763,0.15231060981750488,128,1324515,770245,3604461
1756894095.3443763,0.15231060981750488,128,1225285,762795,3604493
1756894095.3443763,0.15231060981750488,128,1001410,731110,3604525
1756894095.3443763,0.15231060981750488,128,766945,724820,3604557
1756894095.3443763,0.15231060981750488,128,567675,721125,3604589
1756894095.3443763,0.15231060981750488,128,265095,731450,3604621
1756894095.3443763,0.15231060981750488,128,39855,735095,3604653
1756894095.3443763,0.15231060981750488,128,139730,754145,3604685
1756894095.3443763,0.15231060981750488,128,402685,764945,3604717
1756894095.3443763,0.15231060981750488,128,560425,769000,3604749
1756894095.3443763,0.15231060981750488,128,709350,779630,3604781
1756894095.3443763,0.15231060981750488,128,915635,798740,3604813
1756894095.3443763,0.15231060981750488,128,1095010,783365,3604845
1756894095.3443763,0.15231060981750488,128,1131010,770505,3604877
1756894095.3443763,0.15231060981750488,128,1205155,770270,3604909
1756894095.3443763,0.15231060981750488,128,1282395,770310,3604941
1756894095.3443763,0.15231060981750488,128,1344850,771200,3604973
1756894095.3443763,0.15231060981750488,128,1387535,770150,3605005
1756894095.3588316,0.16676592826843262,128,1397620,772770,3605037
1756894095.35984,0.16777420043945312,128,1383815,772845,3605069
1756894095.35984,0.16777420043945312,128,1346630,771755,3605101
1756894095.35984,0.16777420043945312,128,1284080,771075,3605133
1756894095.35984,0.16777420043945312,128,1117525,745105,3605165
1756894095.363838,0.17177224159240723,128,865110,724510,3605197
1756894095.363838,0.17177224159240723,128,673805,725475,3605229
1756894095.364838,0.17277216911315918,128,390785,728725,3605261
1756894095.364838,0.17277216911315918,128,107565,732970,3605293
1756894095.364838,0.17277216911315918,128,-7685,740580,3605325
1756894095.364838,0.17277216911315918,128,124970,754190,3605357
1756894095.3668365,0.17477083206176758,128,512450,765165,3605389
1756894095.3668365,0.17477083206176758,128,635250,779415,3605421
1756894095.3668365,0.17477083206176758,128,788145,786605,3605453
1756894095.3678384,0.17577266693115234,128,1050320,801700,3605485
1756894095.3678384,0.17577266693115234,128,1098725,769805,3605517
1756894095.3678384,0.17577266693115234,128,1168085,770290,3605549
1756894095.3678384,0.17577266693115234,128,1245700,769575,3605581
1756894095.3678384,0.17577266693115234,128,1313430,770870,3605613
1756894095.3678384,0.17577266693115234,128,1369040,771355,3605645
1756894095.3678384,0.17577266693115234,128,1398470,774075,3605677
1756894095.3678384,0.17577266693115234,128,1388740,772295,3605709
1756894095.3678384,0.17577266693115234,128,1365555,772450,3605741
1756894095.3738372,0.18177151679992676,128,1319430,770535,3605773
1756894095.3738372,0.18177151679992676,128,1216280,763215,3605805
1756894095.374838,0.18277239799499512,128,989670,732315,3605837
1756894095.374838,0.18277239799499512,128,759565,727325,3605869
1756894095.374838,0.18277239799499512,128,550445,723220,3605901
1756894095.3863397,0.1942739486694336,128,234840,729945,3605933
1756894095.3863397,0.1942739486694336,128,19085,736765,3605965
1756894095.3873448,0.19527912139892578,128,-4240,741250,3605997
1756894095.3873448,0.19527912139892578,128,404245,763305,3606029
1756894095.3873448,0.19527912139892578,128,565150,770070,3606061
1756894095.3873448,0.19527912139892578,128,714335,779765,3606093
1756894095.3962061,0.20414042472839355,128,929605,800640,3606125
1756894095.3972075,0.20514178276062012,128,1093435,780065,3606157
1756894095.3972075,0.20514178276062012,128,1133325,770115,3606189
1756894095.3972075,0.20514178276062012,128,1206745,771135,3606221
1756894095.3972075,0.20514178276062012,128,1284410,772295,3606253
1756894095.3972075,0.20514178276062012,128,1345930,771710,3606285
1756894095.3972075,0.20514178276062012,128,1389100,770645,3606317
1756894095.399589,0.20752334594726562,128,1396740,775010,3606349
1756894095.399589,0.20752334594726562,128,1381875,772550,3606381
1756894095.399589,0.20752334594726562,128,1344040,771525,3606413
1756894095.399589,0.20752334594726562,128,1279245,772045,3606445
1756894095.399589,0.20752334594726562,128,1105740,742830,3606477
1756894095.399589,0.20752334594726562,128,852670,724325,3606509
1756894095.399589,0.20752334594726562,128,667635,725960,3606541
1756894095.399589,0.20752334594726562,128,357160,728320,3606573
1756894095.399589,0.20752334594726562,128,82405,732460,3606605
1756894095.399589,0.20752334594726562,128,-1085,737285,3606637
1756894095.4006033,0.20853757858276367,128,127370,754795,3606669
1756894095.4016025,0.20953679084777832,128,516810,765690,3606701
1756894095.4016025,0.20953679084777832,128,641550,777855,3606733
1756894095.4016025,0.20953679084777832,128,796215,787705,3606765
1756894095.4016025,0.20953679084777832,128,1058375,800095,3606797
1756894095.4016025,0.20953679084777832,128,1103835,771420,3606829
1756894095.4092224,0.21715664863586426,128,1172970,769335,3606861
1756894095.4092224,0.21715664863586426,128,1251645,770405,3606893
1756894095.4092224,0.21715664863586426,128,1319500,772030,3606925
1756894095.4092224,0.21715664863586426,128,1373035,770755,3606957
1756894095.4092224,0.21715664863586426,128,1401955,773350,3606989
1756894095.4092224,0.21715664863586426,128,1391235,770140,3607021
1756894095.4092224,0.21715664863586426,128,1366805,770560,3607053
1756894095.471861,0.27979516983032227,128,1320230,768280,3607085
1756894095.471861,0.27979516983032227,128,1214135,760295,3607117
1756894095.4729013,0.2808356285095215,128,984215,730315,3607149
1756894095.4729013,0.2808356285095215,128,758350,727810,3607181
1756894095.4739017,0.28183603286743164,128,533200,721295,3607213
1756894095.4739017,0.28183603286743164,128,212280,731415,3607245
1756894095.4739017,0.28183603286743164,128,84590,732555,3607277
1756894095.4739017,0.28183603286743164,128,-16940,740045,3607309
1756894095.4749005,0.2828347682952881,128,411510,765100,3607341
1756894095.4749005,0.2828347682952881,128,574015,769820,3607373
1756894095.4749005,0.2828347682952881,128,725170,779715,3607405
1756894095.4749005,0.2828347682952881,128,945350,800605,3607437
1756894095.4749005,0.2828347682952881,128,1099070,779150,3607469
1756894095.4754016,0.28333592414855957,128,1140600,768800,3607501
1756894095.4754772,0.28341150283813477,128,1213835,769105,3607533
1756894095.4754772,0.28341150283813477,128,1291075,771600,3607565
1756894095.4757402,0.2836744785308838,128,1351190,769180,3607597
1756894095.4758801,0.2838144302368164,128,1391615,769495,3607629
1756894095.4759498,0.28388404846191406,128,1399560,772990,3607661
1756894095.4759498,0.28388404846191406,128,1384235,770110,3607693
1756894095.4759498,0.28388404846191406,128,1345190,768640,3607725
1756894095.4759498,0.28388404846191406,128,1277650,768495,3607757
1756894095.4762828,0.28421711921691895,128,1101345,741415,3607789
1756894095.4763563,0.2842905521392822,128,850215,722645,3607821
1756894095.4763563,0.2842905521392822,128,663260,723220,3607853
1756894095.4763563,0.2842905521392822,128,342020,726475,3607885
1756894095.4763563,0.2842905521392822,128,195050,729085,3607917
1756894095.4763563,0.2842905521392822,128,-9655,734480,3607949
1756894095.4763563,0.2842905521392822,128,148830,752475,3607981
1756894095.4763563,0.2842905521392822,128,523785,764090,3608013
1756894095.4763563,0.2842905521392822,128,650100,774975,3608045
1756894095.4763563,0.2842905521392822,128,808000,787060,3608077
1756894095.4763563,0.2842905521392822,128,1066710,797515,3608109
1756894095.4763563,0.2842905521392822,128,1108130,769190,3608141
1756894095.4763563,0.2842905521392822,128,1177755,768810,3608173
1756894095.4763563,0.2842905521392822,128,1255880,769080,3608205
1756894095.4763563,0.2842905521392822,128,1322175,769335,3608237
1756894095.4773695,0.28530383110046387,128,1375415,771360,3608269
1756894095.4773695,0.28530383110046387,128,1401990,771675,3608301
1756894095.4773695,0.28530383110046387,128,1391520,772115,3608333
1756894095.4773695,0.28530383110046387,128,1366280,772080,3608365
1756894095.4773695,0.28530383110046387,128,1319165,770485,3608397
1756894095.4773695,0.28530383110046387,128,1206710,760835,3608429
1756894095.4773695,0.28530383110046387,128,973175,729355,3608461
1756894095.4773695,0.28530383110046387,128,750525,728075,3608493
1756894095.4773695,0.28530383110046387,128,521505,723170,3608525
1756894095.4773695,0.28530383110046387,128,347755,728650,3608557
1756894095.4773695,0.28530383110046387,128,76230,732020,3608589
1756894095.4773695,0.28530383110046387,128,-14705,740920,3608621
1756894095.4773695,0.28530383110046387,128,427800,765400,3608653
1756894095.4773695,0.28530383110046387,128,578240,770325,3608685
1756894095.478368,0.2863023281097412,128,729760,782125,3608717
1756894095.478368,0.2863023281097412,128,954895,800820,3608749
1756894095.478368,0.2863023281097412,128,1097790,777700,3608781
1756894095.478368,0.2863023281097412,128,1141750,769730,3608813
1756894095.478368,0.2863023281097412,128,1215040,768760,3608845
1756894095.478368,0.2863023281097412,128,1291460,770515,3608877
1756894095.478368,0.2863023281097412,128,1351950,772060,3608909
1756894095.4788935,0.28682780265808105,128,1391045,770630,3608941
1756894095.4788935,0.28682780265808105,128,1397075,772710,3608973
1756894095.4788935,0.28682780265808105,128,1381070,771750,3609005
1756894095.4788935,0.28682780265808105,128,1341305,770115,3609037
1756894095.4788935,0.28682780265808105,128,1271850,770815,3609069
1756894095.4839368,0.2918710708618164,128,1091495,740935,3609101
1756894095.4839368,0.2918710708618164,128,840145,723985,3609133
1756894095.4839368,0.2918710708618164,128,747805,727595,3609165
1756894095.4848535,0.2927877902984619,128,518700,723865,3609197
1756894095.4848535,0.2927877902984619,128,204850,733020,3609229
1756894095.4848535,0.2927877902984619,128,7860,736810,3609261
1756894095.4848535,0.2927877902984619,128,198180,758230,3609293
1756894095.489909,0.29784321784973145,128,527755,764775,3609325
1756894095.4909074,0.2988417148590088,128,657280,779855,3609357
1756894095.4909074,0.2988417148590088,128,816190,787125,3609389
1756894095.4909074,0.2988417148590088,128,1071855,797295,3609421
1756894095.4909074,0.2988417148590088,128,1108830,770485,3609453
1756894095.4969072,0.3048415184020996,128,1179785,770860,3609485
1756894095.4969072,0.3048415184020996,128,1258200,770550,3609517
1756894095.4969072,0.3048415184020996,128,1323945,770635,3609549
1756894095.4969072,0.3048415184020996,128,1375575,772070,3609581
1756894095.4969072,0.3048415184020996,128,1400730,773635,3609613
1756894095.4979076,0.30584192276000977,128,1390260,773615,3609645
1756894095.4979076,0.30584192276000977,128,1363105,772275,3609677
1756894095.4979076,0.30584192276000977,128,1315665,773110,3609709
1756894095.4979076,0.30584192276000977,128,1197055,758065,3609741
1756894095.4979076,0.30584192276000977,128,961795,731065,3609773
1756894095.4979076,0.30584192276000977,128,833685,724385,3609805
1756894095.5019073,0.3098416328430176,128,649360,725405,3609837
1756894095.5019073,0.3098416328430176,128,386805,731070,3609869
1756894095.5019073,0.3098416328430176,128,119210,733575,3609901
1756894095.5019073,0.3098416328430176,128,43450,743625,3609933
1756894095.5019073,0.3098416328430176,128,462505,768625,3609965
1756894095.5019073,0.3098416328430176,128,582480,772495,3609997
1756894095.502908,0.31084227561950684,128,734015,783710,3610029
1756894095.502908,0.31084227561950684,128,963150,802255,3610061
1756894095.5030062,0.3109405040740967,128,1095310,778470,3610093
1756894095.5030062,0.3109405040740967,128,1142115,769905,3610125
1756894095.5030062,0.3109405040740967,128,1216310,772295,3610157
1756894095.5030062,0.3109405040740967,128,1291670,772885,3610189
1756894095.5097022,0.31763648986816406,128,1351575,773525,3610221
1756894095.5097022,0.31763648986816406,128,1389105,772375,3610253
1756894095.5097022,0.31763648986816406,128,1392280,773000,3610285
1756894095.5099075,0.3178417682647705,128,1376425,773290,3610317
1756894095.5099661,0.3179004192352295,128,1335810,770850,3610349
1756894095.5099661,0.3179004192352295,128,1263810,771825,3610381
1756894095.516895,0.3248293399810791,128,1079190,742500,3610413
1756894095.516895,0.3248293399810791,128,953260,729855,3610445
1756894095.516895,0.3248293399810791,128,736780,730365,3610477
1756894095.516895,0.3248293399810791,128,545450,726210,3610509
1756894095.516895,0.3248293399810791,128,279480,732190,3610541
1756894095.516895,0.3248293399810791,128,85750,738985,3610573
1756894095.5209036,0.32883787155151367,128,286725,760775,3610605
1756894095.5209036,0.32883787155151367,128,526910,767795,3610637
1756894095.5209036,0.32883787155151367,128,657550,780935,3610669
1756894095.5209036,0.32883787155151367,128,819870,789940,3610701
1756894095.5209036,0.32883787155151367,128,1073960,798590,3610733
1756894095.5209036,0.32883787155151367,128,1106935,770040,3610765
1756894095.5318184,0.3397526741027832,128,1178135,771470,3610797
1756894095.5318184,0.3397526741027832,128,1256220,770260,3610829
1756894095.5318184,0.3397526741027832,128,1322495,772130,3610861
1756894095.5318184,0.3397526741027832,128,1372340,770800,3610893
1756894095.5318184,0.3397526741027832,128,1397395,774370,3610925
1756894095.535432,0.3433663845062256,128,1385295,772180,3610957
1756894095.5359268,0.34386110305786133,128,1357110,771390,3610989
1756894095.5359268,0.34386110305786133,128,1308355,770800,3611021
1756894095.5359268,0.34386110305786133,128,1188015,756885,3611053
1756894095.5359268,0.34386110305786133,128,1076215,739680,3611085
1756894095.5359268,0.34386110305786133,128,824410,724140,3611117
1756894095.5359268,0.34386110305786133,128,636060,724475,3611149
1756894095.545847,0.35378122329711914,128,405610,731720,3611181
1756894095.545847,0.35378122329711914,128,138690,735310,3611213
1756894095.545847,0.35378122329711914,128,69785,743230,3611245
1756894095.545847,0.35378122329711914,128,474770,768620,3611277
1756894095.545847,0.35378122329711914,128,584615,773340,3611309
1756894095.5528266,0.3607609272003174,128,735290,781610,3611341
1756894095.5528266,0.3607609272003174,128,972590,802565,3611373
1756894095.5528266,0.3607609272003174,128,1094975,778630,3611405
1756894095.5528266,0.3607609272003174,128,1143910,768615,3611437
1756894095.5538764,0.36181068420410156,128,1219495,771765,3611469
1756894095.5539992,0.36193346977233887,128,1294385,772900,3611501
1756894095.5540533,0.3619875907897949,128,1353250,770645,3611533
1756894095.556819,0.36475324630737305,128,1391775,771640,3611565
1756894095.556819,0.36475324630737305,128,1393110,773205,3611597
1756894095.556819,0.36475324630737305,128,1376570,773950,3611629
1756894095.556819,0.36475324630737305,128,1335075,771030,3611661
1756894095.556819,0.36475324630737305,128,1259580,769945,3611693
1756894095.5638378,0.37177205085754395,128,1181335,757540,3611725
1756894095.5648184,0.37275266647338867,128,944360,728395,3611757
1756894095.5648184,0.37275266647338867,128,731725,729245,3611789
1756894095.5648184,0.37275266647338867,128,519215,726465,3611821
1756894095.5648184,0.37275266647338867,128,220865,734090,3611853
1756894095.5677898,0.37572407722473145,128,30665,736070,3611885
1756894095.5677898,0.37572407722473145,128,267950,759795,3611917
1756894095.5677898,0.37572407722473145,128,532765,767005,3611949
1756894095.5677898,0.37572407722473145,128,666955,781100,3611981
1756894095.5677898,0.37572407722473145,128,833675,791740,3612013
1756894095.568824,0.376758337020874,128,1080310,795905,3612045
1756894095.568824,0.376758337020874,128,1111725,771000,3612077
1756894095.5768077,0.38474202156066895,128,1183505,769155,3612109
1756894095.5768077,0.38474202156066895,128,1263795,771545,3612141
1756894095.5768077,0.38474202156066895,128,1328930,772040,3612173
1756894095.5768077,0.38474202156066895,128,1377225,770125,3612205
1756894095.5778456,0.38577985763549805,128,1400795,774265,3612237
1756894095.5778456,0.38577985763549805,128,1388065,772440,3612269
1756894095.5778456,0.38577985763549805,128,1358695,770990,3612301
1756894095.5778456,0.38577985763549805,128,1308405,771335,3612333
1756894095.5778456,0.38577985763549805,128,1260720,771540,3612365
1756894095.5778456,0.38577985763549805,128,1066805,737600,3612397
1756894095.5778456,0.38577985763549805,128,813355,723435,3612429
1756894095.583876,0.39181017875671387,128,627730,724495,3612461
1756894095.583876,0.39181017875671387,128,325950,731625,3612493
1756894095.583876,0.39181017875671387,128,63890,736075,3612525
1756894095.5848095,0.3927438259124756,128,16680,745560,3612557
1756894095.5848095,0.3927438259124756,128,468835,765340,3612589
1756894095.5848095,0.3927438259124756,128,591905,771940,3612621
1756894095.588778,0.3967123031616211,128,741240,779390,3612653
1756894095.588778,0.3967123031616211,128,984935,802830,3612685
1756894095.5898087,0.39774298667907715,128,1095650,774685,3612717
1756894095.5898087,0.39774298667907715,128,1148030,770700,3612749
1756894095.5898087,0.39774298667907715,128,1222600,770435,3612781
1756894095.5898087,0.39774298667907715,128,1296860,773140,3612813
1756894095.6260254,0.4339597225189209,128,1355200,770620,3612845
1756894095.6260254,0.4339597225189209,128,1392270,772300,3612877
1756894095.6260254,0.4339597225189209,128,1392170,771605,3612909
1756894095.6260254,0.4339597225189209,128,1375575,773075,3612941
1756894095.6260254,0.4339597225189209,128,1333800,771205,3612973
1756894095.6260254,0.4339597225189209,128,1304580,772120,3613005
1756894095.6260254,0.4339597225189209,128,1176540,754560,3613037
1756894095.6260254,0.4339597225189209,128,936510,727645,3613069
1756894095.6260254,0.4339597225189209,128,727075,729990,3613101
1756894095.6260254,0.4339597225189209,128,470935,724100,3613133
1756894095.6260254,0.4339597225189209,128,163975,732485,3613165
1756894095.6260254,0.4339597225189209,128,-14815,739900,3613197
1756894095.627026,0.43496036529541016,128,249350,761205,3613229
1756894095.627026,0.43496036529541016,128,535695,768445,3613261
1756894095.627026,0.43496036529541016,128,674375,781985,3613293
1756894095.627026,0.43496036529541016,128,844475,792700,3613325
1756894095.627026,0.43496036529541016,128,1080315,795145,3613357
1756894095.627026,0.43496036529541016,128,1110920,772425,3613389
1756894095.627026,0.43496036529541016,128,1181620,770725,3613421
1756894095.627026,0.43496036529541016,128,1261150,771970,3613453
1756894095.627026,0.43496036529541016,128,1324715,771135,3613485
1756894095.627026,0.43496036529541016,128,1373565,771690,3613517
1756894095.627026,0.43496036529541016,128,1395365,774105,3613549
1756894095.627026,0.43496036529541016,128,1381985,773125,3613581
1756894095.627026,0.43496036529541016,128,1351580,772490,3613613
1756894095.6280255,0.4359598159790039,128,1329770,771350,3613645
1756894095.6280255,0.4359598159790039,128,1251655,769475,3613677
1756894095.6280255,0.4359598159790039,128,1058135,739030,3613709
1756894095.6280255,0.4359598159790039,128,808560,725320,3613741
1756894095.6637952,0.4717295169830322,128,620500,723095,3613773
1756894095.6648235,0.47275781631469727,128,301025,731785,3613805
1756894095.6648235,0.47275781631469727,128,47950,736155,3613837
1756894095.6648235,0.47275781631469727,128,11965,747190,3613869
1756894095.6648235,0.47275781631469727,128,468545,765725,3613901
1756894095.6648235,0.47275781631469727,128,592490,775550,3613933
1756894095.6762197,0.48415398597717285,128,738580,781295,3613965
1756894095.6772318,0.485166072845459,128,984105,803855,3613997
1756894095.6772318,0.485166072845459,128,1090265,775760,3614029
1756894095.6772318,0.485166072845459,128,1144415,769375,3614061
1756894095.6772318,0.485166072845459,128,1220205,772130,3614093
1756894095.679828,0.4877622127532959,128,1292945,770205,3614125
1756894095.679828,0.4877622127532959,128,1352725,772065,3614157
1756894095.679828,0.4877622127532959,128,1388275,773095,3614189
1756894095.679828,0.4877622127532959,128,1386915,773605,3614221
1756894095.679828,0.4877622127532959,128,1369395,772195,3614253
1756894095.679828,0.4877622127532959,128,1349385,769685,3614285
1756894095.679828,0.4877622127532959,128,1299495,770915,3614317
1756894095.679828,0.4877622127532959,128,1170635,755695,3614349
1756894095.679828,0.4877622127532959,128,925530,728005,3614381
1756894095.679828,0.4877622127532959,128,714000,728595,3614413
1756894095.679828,0.4877622127532959,128,456370,726610,3614445
1756894095.679828,0.4877622127532959,128,146035,731855,3614477
1756894095.6808197,0.4887540340423584,128,-16570,739220,3614509
1756894095.6828315,0.4907658100128174,128,274270,761875,3614541
1756894095.6828315,0.4907658100128174,128,534555,767010,3614573
1756894095.6828315,0.4907658100128174,128,673545,780695,3614605
1756894095.6828315,0.4907658100128174,128,845900,795405,3614637
1756894095.6828315,0.4907658100128174,128,1079120,794825,3614669
1756894095.6828315,0.4907658100128174,128,1109875,770285,3614701
1756894095.6828315,0.4907658100128174,128,1182600,771440,3614733
1756894095.6828315,0.4907658100128174,128,1262575,771050,3614765
1756894095.6828315,0.4907658100128174,128,1327035,771170,3614797
1756894095.6828315,0.4907658100128174,128,1374560,771625,3614829
1756894095.6828315,0.4907658100128174,128,1395430,775410,3614861
1756894095.6837924,0.4917266368865967,128,1381150,771710,3614893
1756894095.6837924,0.4917266368865967,128,1370415,773745,3614925
1756894095.6837924,0.4917266368865967,128,1328670,772620,3614957
1756894095.6837924,0.4917266368865967,128,1246925,768835,3614989
1756894095.6837924,0.4917266368865967,128,1047715,737400,3615021
1756894095.6837924,0.4917266368865967,128,799650,724290,3615053
1756894095.6837924,0.4917266368865967,128,608890,722845,3615085
1756894095.684325,0.49225926399230957,128,290905,732120,3615117
1756894095.684325,0.49225926399230957,128,45360,734085,3615149
1756894095.684325,0.49225926399230957,128,29615,747075,3615181
1756894095.684325,0.49225926399230957,128,478520,767900,3615213
1756894095.684325,0.49225926399230957,128,598670,774065,3615245
1756894095.684325,0.49225926399230957,128,747110,782780,3615277
1756894095.684325,0.49225926399230957,128,996775,802930,3615309
1756894095.6848242,0.49275851249694824,128,1091520,773555,3615341
1756894095.6848242,0.49275851249694824,128,1149720,771280,3615373
1756894095.6848242,0.49275851249694824,128,1224045,769530,3615405
1756894095.6848242,0.49275851249694824,128,1296970,771540,3615437
1756894095.6868463,0.4947805404663086,128,1355265,771765,3615469
1756894095.6868463,0.4947805404663086,128,1391085,773470,3615501
1756894095.6868463,0.4947805404663086,128,1387705,772340,3615533
1756894095.6868463,0.4947805404663086,128,1381555,772710,3615565
1756894095.6868463,0.4947805404663086,128,1350300,772500,3615597
1756894095.6887972,0.4967315196990967,128,1297945,771945,3615629
1756894095.6887972,0.4967315196990967,128,1162000,753345,3615661
1756894095.6887972,0.4967315196990967,128,917220,727365,3615693
1756894095.689805,0.497739315032959,128,715250,730050,3615725
1756894095.689805,0.497739315032959,128,458160,725715,3615757
1756894095.689805,0.497739315032959,128,146355,732430,3615789
1756894095.6920078,0.4999420642852783,128,-11340,739175,3615821
1756894095.6922355,0.5001697540283203,128,290615,763325,3615853
1756894095.6922355,0.5001697540283203,128,539745,767385,3615885
1756894095.692407,0.5003411769866943,128,680750,781460,3615917
1756894095.692407,0.5003411769866943,128,855510,793330,3615949
1756894095.6937754,0.5017096996307373,128,1084655,793115,3615981
1756894095.6937754,0.5017096996307373,128,1115130,771905,3616013
1756894095.6937754,0.5017096996307373,128,1187635,772465,3616045
1756894095.6947758,0.5027101039886475,128,1267260,771425,3616077
1756894095.6948833,0.5028176307678223,128,1331565,773050,3616109
1756894095.6948833,0.5028176307678223,128,1378205,771545,3616141
1756894095.6968796,0.5048139095306396,128,1393750,773910,3616173
1756894095.6968796,0.5048139095306396,128,1390615,771435,3616205
1756894095.6968796,0.5048139095306396,128,1372645,774185,3616237
1756894095.6968796,0.5048139095306396,128,1329990,770650,3616269
1756894095.6968796,0.5048139095306396,128,1246895,767975,3616301
1756894095.6968796,0.5048139095306396,128,1041455,736115,3616333
1756894095.711793,0.5197272300720215,128,794290,723415,3616365
1756894095.711793,0.5197272300720215,128,599155,722085,3616397
1756894095.711793,0.5197272300720215,128,264190,730660,3616429
1756894095.711793,0.5197272300720215,128,26240,734775,3616461
1756894095.711793,0.5197272300720215,128,27420,747300,3616493
1756894095.711793,0.5197272300720215,128,485315,764450,3616525
1756894095.711793,0.5197272300720215,128,606500,774670,3616557
1756894095.7138278,0.5217621326446533,128,755100,781300,3616589
1756894095.7138278,0.5217621326446533,128,1011570,802560,3616621
1756894095.7138278,0.5217621326446533,128,1095635,771045,3616653
1756894095.714827,0.522761344909668,128,1156905,770100,3616685
1756894095.714827,0.522761344909668,128,1232500,769110,3616717
1756894095.7168155,0.524749755859375,128,1304140,769505,3616749
1756894095.7168155,0.524749755859375,128,1363075,771575,3616781
1756894095.7168155,0.524749755859375,128,1381870,769325,3616813
1756894095.7168155,0.524749755859375,128,1400385,773100,3616845
1756894095.7168155,0.524749755859375,128,1386580,770360,3616877
1756894095.7178473,0.5257816314697266,128,1353675,770910,3616909
1756894095.7178473,0.5257816314697266,128,1298885,770030,3616941
1756894095.7178473,0.5257816314697266,128,1156045,749450,3616973
1756894095.7178473,0.5257816314697266,128,910795,726145,3617005
1756894095.7178473,0.5257816314697266,128,710060,727295,3617037
1756894095.7178473,0.5257816314697266,128,452385,726765,3617069
1756894095.7198255,0.5277597904205322,128,159955,731765,3617101
1756894095.7208629,0.5287971496582031,128,5350,738385,3617133
1756894095.7208629,0.5287971496582031,128,333025,762785,3617165
1756894095.7208629,0.5287971496582031,128,547520,767155,3617197
1756894095.7208629,0.5287971496582031,128,691985,780245,3617229
1756894095.7208629,0.5287971496582031,128,876000,796470,3617261
1756894095.7281716,0.5361058712005615,128,1092870,788005,3617293
1756894095.7281716,0.5361058712005615,128,1121755,768960,3617325
1756894095.7281716,0.5361058712005615,128,1195050,769760,3617357
1756894095.7281716,0.5361058712005615,128,1273925,768620,3617389
1756894095.7281716,0.5361058712005615,128,1337430,770455,3617421
1756894095.7281716,0.5361058712005615,128,1363885,770790,3617453
1756894095.7281716,0.5361058712005615,128,1397590,771050,3617485
1756894095.7926223,0.6005566120147705,128,1392745,769045,3617517
1756894095.7926223,0.6005566120147705,128,1374300,771760,3617549
1756894095.7926223,0.6005566120147705,128,1331300,768155,3617581
1756894095.7926223,0.6005566120147705,128,1241960,766220,3617613
1756894095.7926223,0.6005566120147705,128,1034670,733545,3617645
1756894095.7926223,0.6005566120147705,128,788260,725615,3617677
1756894095.7926223,0.6005566120147705,128,597430,721820,3617709
1756894095.7926223,0.6005566120147705,128,308150,730705,3617741
1756894095.7926223,0.6005566120147705,128,63855,734890,3617773
1756894095.7926223,0.6005566120147705,128,92895,748910,3617805
1756894095.7926223,0.6005566120147705,128,501570,764595,3617837
1756894095.7926223,0.6005566120147705,128,615825,775320,3617869
1756894095.7926223,0.6005566120147705,128,763285,782645,3617901
1756894095.7926223,0.6005566120147705,128,1019970,803505,3617933
1756894095.7926223,0.6005566120147705,128,1098375,772585,3617965
1756894095.7926223,0.6005566120147705,128,1160765,770675,3617997
1756894095.7926223,0.6005566120147705,128,1237135,769960,3618029
1756894095.7926223,0.6005566120147705,128,1309405,771540,3618061
1756894095.7926223,0.6005566120147705,128,1340030,772410,3618093
1756894095.7926223,0.6005566120147705,128,1383655,769095,3618125
1756894095.7926223,0.6005566120147705,128,1402160,775585,3618157
1756894095.7926223,0.6005566120147705,128,1387465,772540,3618189
1756894095.7926223,0.6005566120147705,128,1352935,771340,3618221
1756894095.7926223,0.6005566120147705,128,1297145,770680,3618253
1756894095.7926223,0.6005566120147705,128,1152595,748680,3618285
1756894095.7926223,0.6005566120147705,128,903900,725575,3618317
1756894095.7926223,0.6005566120147705,128,705805,728365,3618349
1756894095.7926223,0.6005566120147705,128,454885,727960,3618381
1756894095.7926223,0.6005566120147705,128,169470,731865,3618413
1756894095.7926223,0.6005566120147705,128,16395,738965,3618445
1756894095.7926223,0.6005566120147705,128,362795,765710,3618477
1756894095.7926223,0.6005566120147705,128,551670,767795,3618509
1756894095.7926223,0.6005566120147705,128,698930,782620,3618541
1756894095.7926223,0.6005566120147705,128,885315,797730,3618573
1756894095.7926223,0.6005566120147705,128,1093300,789735,3618605
1756894095.7926223,0.6005566120147705,128,1124540,772325,3618637
1756894095.7926223,0.6005566120147705,128,1197130,772790,3618669
1756894095.7926223,0.6005566120147705,128,1275490,770555,3618701
1756894095.7926223,0.6005566120147705,128,1308695,772615,3618733
1756894095.7926223,0.6005566120147705,128,1365520,772820,3618765
1756894095.7926223,0.6005566120147705,128,1397960,773090,3618797
1756894095.7926223,0.6005566120147705,128,1393200,773565,3618829
1756894095.7926223,0.6005566120147705,128,1373565,773950,3618861
1756894095.7926223,0.6005566120147705,128,1330465,770805,3618893
1756894095.7926223,0.6005566120147705,128,1239385,768930,3618925
1756894095.7926223,0.6005566120147705,128,1027895,735235,3618957
1756894095.7926223,0.6005566120147705,128,782690,727765,3618989
1756894095.7926223,0.6005566120147705,128,589795,723110,3619021
1756894095.7926223,0.6005566120147705,128,298010,730035,3619053
1756894095.7926223,0.6005566120147705,128,57085,737080,3619085
1756894095.7926223,0.6005566120147705,128,105275,749260,3619117
1756894095.7926223,0.6005566120147705,128,502325,764575,3619149
1756894095.7926223,0.6005566120147705,128,618365,775785,3619181
1756894095.7926223,0.6005566120147705,128,766825,782450,3619213
1756894095.7926223,0.6005566120147705,128,1026655,802820,3619245
1756894095.7926223,0.6005566120147705,128,1096990,771960,3619277
1756894095.7926223,0.6005566120147705,128,1161820,770110,3619309
1756894095.7926223,0.6005566120147705,128,1238265,770140,3619341
1756894095.8227208,0.63065505027771,128,1276825,772225,3619373
1756894095.8227208,0.63065505027771,128,1339710,773365,3619405
1756894095.8237212,0.6316554546356201,128,1384795,771415,3619437
1756894095.8237212,0.6316554546356201,128,1399090,775725,3619469
1756894095.8237212,0.6316554546356201,128,1384650,772710,3619501
1756894095.82556,0.6334943771362305,128,1349580,771430,3619533
1756894095.82556,0.6334943771362305,128,1292735,771040,3619565
1756894095.82556,0.6334943771362305,128,1143440,748755,3619597
1756894095.82556,0.6334943771362305,128,890445,726000,3619629
1756894095.82556,0.6334943771362305,128,696040,728195,3619661
1756894095.82556,0.6334943771362305,128,457255,728790,3619693
1756894095.8296013,0.637535572052002,128,162945,732175,3619725
1756894095.8296013,0.637535572052002,128,28755,740330,3619757
1756894095.8296013,0.637535572052002,128,384700,763230,3619789
1756894095.8296013,0.637535572052002,128,553050,768120,3619821
1756894095.8296013,0.637535572052002,128,699645,780925,3619853
1756894095.8296013,0.637535572052002,128,895025,800000,3619885
1756894095.8316014,0.639535665512085,128,1093600,786835,3619917
1756894095.8316014,0.639535665512085,128,1125935,770840,3619949
1756894095.8316014,0.639535665512085,128,1199145,771275,3619981
1756894095.8316014,0.639535665512085,128,1240720,772380,3620013
1756894095.8316014,0.639535665512085,128,1310210,771525,3620045
1756894095.834104,0.6420383453369141,128,1367145,772740,3620077
1756894095.834104,0.6420383453369141,128,1399100,772740,3620109
1756894095.834104,0.6420383453369141,128,1392145,773445,3620141
1756894095.834104,0.6420383453369141,128,1371490,773785,3620173
1756894095.834104,0.6420383453369141,128,1327730,772050,3620205
1756894095.834104,0.6420383453369141,128,1233830,767210,3620237
1756894095.834104,0.6420383453369141,128,1016515,734015,3620269
1756894095.837108,0.6450421810150146,128,779240,727610,3620301
1756894095.837108,0.6450421810150146,128,586215,722980,3620333
1756894095.837108,0.6450421810150146,128,292910,731315,3620365
1756894095.837108,0.6450421810150146,128,62640,737455,3620397
1756894095.837108,0.6450421810150146,128,120385,752910,3620429
1756894095.8391073,0.6470415592193604,128,507280,767290,3620461
1756894095.8391073,0.6470415592193604,128,623460,776600,3620493
1756894095.8391073,0.6470415592193604,128,772175,785195,3620525
1756894095.8391073,0.6470415592193604,128,1033500,803810,3620557
1756894095.8391073,0.6470415592193604,128,1097370,772750,3620589
1756894095.8391073,0.6470415592193604,128,1163160,770540,3620621
1756894095.842109,0.650043249130249,128,1198795,771545,3620653
1756894095.8421922,0.6501264572143555,128,1278635,773990,3620685
1756894095.8421922,0.6501264572143555,128,1341130,771860,3620717
1756894095.8421922,0.6501264572143555,128,1384350,771600,3620749
1756894095.8421922,0.6501264572143555,128,1398110,774595,3620781
1756894095.8421922,0.6501264572143555,128,1383950,772995,3620813
1756894095.8441925,0.6521267890930176,128,1348975,772095,3620845
1756894095.8441925,0.6521267890930176,128,1289040,773995,3620877
1756894095.8441925,0.6521267890930176,128,1133415,747965,3620909
1756894095.8441925,0.6521267890930176,128,881855,726410,3620941
1756894095.8441925,0.6521267890930176,128,690450,726340,3620973
1756894095.8441925,0.6521267890930176,128,420750,729570,3621005
1756894095.8461916,0.6541259288787842,128,131105,733045,3621037
1756894095.8471923,0.6551265716552734,128,-8505,740430,3621069
1756894095.8471923,0.6551265716552734,128,375710,765150,3621101
1756894095.8471923,0.6551265716552734,128,557640,768730,3621133
1756894095.8471923,0.6551265716552734,128,704940,782425,3621165
1756894095.8491914,0.65712571144104,128,904400,800665,3621197
1756894095.8491914,0.65712571144104,128,1093795,786615,3621229
1756894095.8491914,0.65712571144104,128,1127840,771255,3621261
1756894095.8491914,0.65712571144104,128,1166225,771145,3621293
1756894095.8491914,0.65712571144104,128,1243215,771830,3621325
1756894095.8491914,0.65712571144104,128,1312380,771535,3621357
1756894095.8491914,0.65712571144104,128,1368275,774035,3621389
1756894095.8511913,0.659125566482544,128,1399565,774560,3621421
1756894095.8521922,0.6601264476776123,128,1391255,772780,3621453
1756894095.8521922,0.6601264476776123,128,1369630,772380,3621485
1756894095.8521922,0.6601264476776123,128,1325340,771455,3621517
1756894095.8521922,0.6601264476776123,128,1228055,767465,3621549
1756894095.8587382,0.6666724681854248,128,1003975,734145,3621581
1756894095.8587382,0.6666724681854248,128,768050,728260,3621613
1756894095.8587382,0.6666724681854248,128,559635,723100,3621645
1756894095.8587382,0.6666724681854248,128,238595,732310,3621677
1756894095.8587382,0.6666724681854248,128,15230,735690,3621709
1756894095.8587382,0.6666724681854248,128,100945,752740,3621741
1756894095.8740897,0.6820240020751953,128,509375,766755,3621773
1756894095.8740897,0.6820240020751953,128,630210,779335,3621805
1756894095.8751144,0.6830487251281738,128,783290,786425,3621837
1756894095.8751144,0.6830487251281738,128,1045305,803460,3621869
1756894095.8751144,0.6830487251281738,128,1098430,770310,3621901
1756894095.8751144,0.6830487251281738,128,1128335,769855,3621933
1756894095.8753839,0.6833181381225586,128,1201275,772370,3621965
1756894095.8754525,0.6833868026733398,128,1279785,771725,3621997
1756894095.8754525,0.6833868026733398,128,1342645,773970,3622029
1756894095.8754525,0.6833868026733398,128,1385125,771025,3622061
1756894095.8756905,0.6836247444152832,128,1398210,775385,3622093
1756894095.8756905,0.6836247444152832,128,1383250,774815,3622125
1756894095.8908768,0.6988110542297363,128,1346195,772900,3622157
1756894095.8908768,0.6988110542297363,128,1285170,773150,3622189
1756894095.8908768,0.6988110542297363,128,1123890,745405,3622221
1756894095.8908768,0.6988110542297363,128,872590,726425,3622253
1756894095.8908768,0.6988110542297363,128,682835,727500,3622285
1756894095.8908768,0.6988110542297363,128,391855,729030,3622317
1756894095.892519,0.7004532814025879,128,107025,733490,3622349
1756894095.8935463,0.7014806270599365,128,-14160,740160,3622381
1756894095.8935463,0.7014806270599365,128,390650,764990,3622413
1756894095.8935463,0.7014806270599365,128,562455,768730,3622445
1756894095.8935463,0.7014806270599365,128,711275,782260,3622477
1756894095.8955443,0.7034785747528076,128,916880,800695,3622509
1756894095.8955443,0.7034785747528076,128,1095730,784935,3622541
1756894095.8955443,0.7034785747528076,128,1101265,771760,3622573
1756894095.8955443,0.7034785747528076,128,1170150,770840,3622605
1756894095.896545,0.7044792175292969,128,1246555,770810,3622637
1756894095.896545,0.7044792175292969,128,1314205,770635,3622669
1756894095.896545,0.7044792175292969,128,1370040,773545,3622701
1756894095.896545,0.7044792175292969,128,1400620,775795,3622733
1756894095.896545,0.7044792175292969,128,1391365,773970,3622765
1756894095.896545,0.7044792175292969,128,1368815,773260,3622797
1756894095.896545,0.7044792175292969,128,1324150,771290,3622829
1756894095.896545,0.7044792175292969,128,1222515,764975,3622861
1756894095.8991184,0.7070527076721191,128,999960,734905,3622893
1756894095.8991184,0.7070527076721191,128,765585,728550,3622925
1756894095.8991184,0.7070527076721191,128,560545,723635,3622957
1756894095.8991184,0.7070527076721191,128,245805,733190,3622989
1756894095.8991184,0.7070527076721191,128,28140,735780,3623021
1756894095.8991184,0.7070527076721191,128,133045,753480,3623053
1756894095.907861,0.7157952785491943,128,516315,765945,3623085
1756894095.907861,0.7157952785491943,128,638060,779580,3623117
1756894095.907861,0.7157952785491943,128,790450,786740,3623149
1756894095.907861,0.7157952785491943,128,1050375,800480,3623181
1756894095.907861,0.7157952785491943,128,1095030,784115,3623213
1756894095.9089165,0.716850757598877,128,1132585,771790,3623245
1756894095.9159145,0.723848819732666,128,1205405,770215,3623277
1756894095.9159145,0.723848819732666,128,1284545,772545,3623309
1756894095.9159145,0.723848819732666,128,1346305,772245,3623341
1756894095.9159145,0.723848819732666,128,1389095,771270,3623373
1756894095.9159145,0.723848819732666,128,1398010,773580,3623405
1756894095.9159145,0.723848819732666,128,1383460,772675,3623437
1756894095.922914,0.7308483123779297,128,1345985,771445,3623469
1756894095.922914,0.7308483123779297,128,1284025,773645,3623501
1756894095.922914,0.7308483123779297,128,1117925,745085,3623533
1756894095.9239142,0.7318484783172607,128,865745,725565,3623565
1756894095.9239142,0.7318484783172607,128,678340,726965,3623597
1756894095.9239142,0.7318484783172607,128,412385,730610,3623629
1756894095.927914,0.7358481884002686,128,131310,734105,3623661
1756894095.927914,0.7358481884002686,128,13395,741635,3623693
1756894095.928915,0.736849308013916,128,415190,767615,3623725
1756894095.928915,0.736849308013916,128,567065,771230,3623757
1756894095.928915,0.736849308013916,128,716960,782185,3623789
1756894095.928915,0.736849308013916,128,792055,788175,3623821
1756894095.928915,0.736849308013916,128,1055200,802605,3623853
1756894095.928915,0.736849308013916,128,1103240,773135,3623885
1756894095.928915,0.736849308013916,128,1172790,773370,3623917
1756894095.928915,0.736849308013916,128,1249740,771200,3623949
1756894095.928915,0.736849308013916,128,1317760,772285,3623981
1756894095.934417,0.7423512935638428,128,1371790,772860,3624013
1756894095.934417,0.7423512935638428,128,1401500,773140,3624045
1756894095.934417,0.7423512935638428,128,1391570,772505,3624077
1756894095.9354212,0.7433555126190186,128,1368615,774045,3624109
1756894095.9354212,0.7433555126190186,128,1322885,773510,3624141
1756894095.9354212,0.7433555126190186,128,1216900,764015,3624173
1756894095.94373,0.751664400100708,128,989455,733130,3624205
1756894095.94373,0.751664400100708,128,760950,728780,3624237
1756894095.94373,0.751664400100708,128,558410,724140,3624269
1756894095.944085,0.7520191669464111,128,260600,732085,3624301
1756894095.9441502,0.752084493637085,128,43085,738380,3624333
1756894095.9441502,0.752084493637085,128,177645,756040,3624365
1756894095.9441502,0.752084493637085,128,521910,766420,3624397
1756894095.9441502,0.752084493637085,128,644885,778700,3624429
1756894095.9441502,0.752084493637085,128,721185,782395,3624461
1756894095.9441502,0.752084493637085,128,935380,803025,3624493
1756894095.9441502,0.752084493637085,128,1097330,783250,3624525
1756894095.9451754,0.7531096935272217,128,1137000,771005,3624557
1756894095.946007,0.7539412975311279,128,1210790,772825,3624589
1756894095.9460704,0.754004716873169,128,1288540,772775,3624621
1756894095.9460704,0.754004716873169,128,1350860,773275,3624653
1756894095.9460704,0.754004716873169,128,1391525,772520,3624685
1756894095.9460704,0.754004716873169,128,1399355,773425,3624717
1756894095.9460704,0.754004716873169,128,1385005,774570,3624749
1756894095.9489536,0.7568879127502441,128,1347100,772495,3624781
1756894095.9489536,0.7568879127502441,128,1280715,772665,3624813
1756894095.9489536,0.7568879127502441,128,1108505,742485,3624845
1756894095.9489536,0.7568879127502441,128,855585,725505,3624877
1756894095.9499538,0.7578880786895752,128,667830,725745,3624909
1756894095.963914,0.771848201751709,128,416415,729775,3624941
1756894095.963914,0.771848201751709,128,138740,734820,3624973
1756894095.9649138,0.7728481292724609,128,38045,740155,3625005
1756894095.9649138,0.7728481292724609,128,444800,767655,3625037
1756894095.9649138,0.7728481292724609,128,574350,772625,3625069
1756894095.9649138,0.7728481292724609,128,649865,780160,3625101
1756894095.9662676,0.7742018699645996,128,805235,786565,3625133
1756894095.9672687,0.7752029895782471,128,1065205,802500,3625165
1756894095.9672687,0.7752029895782471,128,1106475,770645,3625197
1756894095.9672687,0.7752029895782471,128,1177125,772595,3625229
1756894095.9672687,0.7752029895782471,128,1255005,772210,3625261
1756894095.9692547,0.7771890163421631,128,1322620,772600,3625293
1756894095.9692547,0.7771890163421631,128,1374215,771280,3625325
1756894095.9692547,0.7771890163421631,128,1403480,774300,3625357
1756894095.9692547,0.7771890163421631,128,1393220,773875,3625389
1756894095.9692547,0.7771890163421631,128,1368475,773465,3625421
1756894095.9692547,0.7771890163421631,128,1322315,773330,3625453
1756894095.9821138,0.7900481224060059,128,1210355,761895,3625485
1756894095.9821138,0.7900481224060059,128,981040,732265,3625517
1756894095.9821138,0.7900481224060059,128,756390,729765,3625549
1756894095.9821138,0.7900481224060059,128,560070,724020,3625581
1756894095.9821138,0.7900481224060059,128,272140,731450,3625613
1756894095.9821138,0.7900481224060059,128,69150,735340,3625645
1756894095.9856443,0.7935786247253418,128,231615,755180,3625677
1756894095.9856443,0.7935786247253418,128,527855,764970,3625709
1756894095.9856443,0.7935786247253418,128,578185,770100,3625741
1756894095.9856443,0.7935786247253418,128,728170,781155,3625773
1756894095.98664,0.7945742607116699,128,952195,802755,3625805
1756894095.98664,0.7945742607116699,128,1100255,779895,3625837
1756894095.98664,0.7945742607116699,128,1142830,770240,3625869
1756894095.98664,0.7945742607116699,128,1216190,770385,3625901
1756894095.98664,0.7945742607116699,128,1293805,772275,3625933
1756894095.98664,0.7945742607116699,128,1354765,771790,3625965
1756894095.98664,0.7945742607116699,128,1394355,771040,3625997
1756894095.98664,0.7945742607116699,128,1402315,773925,3626029
1756894096.0118396,0.8197739124298096,128,1387420,774080,3626061
1756894096.0118396,0.8197739124298096,128,1348465,772000,3626093
1756894096.0118396,0.8197739124298096,128,1279760,771050,3626125
1756894096.0118396,0.8197739124298096,128,1102790,741795,3626157
1756894096.0118396,0.8197739124298096,128,850090,725475,3626189
1756894096.0118396,0.8197739124298096,128,663685,724935,3626221
1756894096.0409396,0.8488738536834717,128,426585,730610,3626253
1756894096.0409396,0.8488738536834717,128,151810,733220,3626285
1756894096.0409396,0.8488738536834717,128,61290,741555,3626317
1756894096.0409396,0.8488738536834717,128,466395,766815,3626349
1756894096.0409396,0.8488738536834717,128,532985,766785,3626381
1756894096.0409396,0.8488738536834717,128,660465,779305,3626413
1756894096.0541155,0.8620498180389404,128,819185,790060,3626445
1756894096.0541155,0.8620498180389404,128,1075005,798605,3626477
1756894096.0541155,0.8620498180389404,128,1113510,771555,3626509
1756894096.0541155,0.8620498180389404,128,1185220,771140,3626541
1756894096.0541155,0.8620498180389404,128,1263540,770890,3626573
1756894096.0592675,0.8672018051147461,128,1330440,772535,3626605
1756894096.0592675,0.8672018051147461,128,1382980,772295,3626637
1756894096.0592675,0.8672018051147461,128,1409910,775970,3626669
1756894096.0592675,0.8672018051147461,128,1397535,772305,3626701
1756894096.0592675,0.8672018051147461,128,1371605,772965,3626733
1756894096.0592675,0.8672018051147461,128,1324600,772900,3626765
1756894096.208719,1.016653299331665,128,1207995,759635,3626797
1756894096.2088037,1.016737937927246,128,977995,731865,3626829
1756894096.2088037,1.016737937927246,128,755975,729390,3626861
1756894096.2091203,1.017054557800293,128,558990,722925,3626893
1756894096.215296,1.0232303142547607,128,271675,733335,3626925
1756894096.2162957,1.0242300033569336,128,80295,737615,3626957
1756894096.2162957,1.0242300033569336,128,248875,757670,3626989
1756894096.221126,1.0290603637695312,128,468760,766200,3627021
1756894096.221126,1.0290603637695312,128,586730,771680,3627053
1756894096.2260556,1.0339899063110352,128,738780,781340,3627085
1756894096.2260556,1.0339899063110352,128,969695,802335,3627117
1756894096.2300847,1.0380189418792725,128,1104355,778250,3627149
1756894096.2300847,1.0380189418792725,128,1151040,768995,3627181
1756894096.2300847,1.0380189418792725,128,1224840,770240,3627213
1756894096.2340853,1.0420196056365967,128,1301905,771285,3627245
1756894096.2340853,1.0420196056365967,128,1363045,771390,3627277
1756894096.2340853,1.0420196056365967,128,1402690,769830,3627309
1756894096.2385926,1.0465269088745117,128,1406645,772105,3627341
1756894096.2385926,1.0465269088745117,128,1391615,772405,3627373
1756894096.2432098,1.0511441230773926,128,1352445,771940,3627405
1756894096.2432098,1.0511441230773926,128,1280595,770980,3627437
1756894096.608095,1.4160292148590088,128,1097810,739645,3627469
1756894096.608095,1.4160292148590088,128,845185,724455,3627501
1756894096.608095,1.4160292148590088,128,660330,724310,3627533
1756894096.608095,1.4160292148590088,128,432595,730630,3627565
1756894096.608095,1.4160292148590088,128,154690,734290,3627597
1756894096.608095,1.4160292148590088,128,79035,742935,3627629
1756894096.608095,1.4160292148590088,128,279340,760340,3627661
1756894096.608095,1.4160292148590088,128,538890,766090,3627693
1756894096.608095,1.4160292148590088,128,669330,779545,3627725
1756894096.608095,1.4160292148590088,128,829135,790655,3627757
1756894096.608095,1.4160292148590088,128,1082415,798515,3627789
1756894096.608095,1.4160292148590088,128,1118440,772370,3627821
1756894096.608095,1.4160292148590088,128,1189060,770675,3627853
1756894096.608095,1.4160292148590088,128,1268080,771445,3627885
1756894096.608095,1.4160292148590088,128,1334345,773180,3627917
1756894096.608095,1.4160292148590088,128,1385290,771640,3627949
1756894096.608095,1.4160292148590088,128,1410680,775710,3627981
1756894096.608095,1.4160292148590088,128,1398100,772465,3628013
1756894096.608095,1.4160292148590088,128,1371615,774485,3628045
1756894096.608095,1.4160292148590088,128,1323795,772430,3628077
1756894096.608095,1.4160292148590088,128,1207780,759445,3628109
1756894096.608095,1.4160292148590088,128,970805,730880,3628141
1756894096.608095,1.4160292148590088,128,753855,728870,3628173
1756894096.608095,1.4160292148590088,128,559765,724830,3628205
1756894096.608095,1.4160292148590088,128,288795,732590,3628237
1756894096.608095,1.4160292148590088,128,100195,736810,3628269
1756894096.608095,1.4160292148590088,128,94450,742725,3628301
1756894096.608095,1.4160292148590088,128,485680,768400,3628333
1756894096.608095,1.4160292148590088,128,592325,771665,3628365
1756894096.608095,1.4160292148590088,128,742085,783190,3628397
1756894096.608095,1.4160292148590088,128,973630,803890,3628429
1756894096.608095,1.4160292148590088,128,1105425,777930,3628461
1756894096.608095,1.4160292148590088,128,1152965,770685,3628493
1756894096.608095,1.4160292148590088,128,1227405,772470,3628525
1756894096.608095,1.4160292148590088,128,1302905,771235,3628557
1756894096.608095,1.4160292148590088,128,1364295,774515,3628589
1756894096.608095,1.4160292148590088,128,1402765,773145,3628621
1756894096.608095,1.4160292148590088,128,1406440,774730,3628653
1756894096.608095,1.4160292148590088,128,1389530,773150,3628685
1756894096.608095,1.4160292148590088,128,1349175,770680,3628717
1756894096.608095,1.4160292148590088,128,1275535,772360,3628749
1756894096.608095,1.4160292148590088,128,1087080,740310,3628781
1756894096.608095,1.4160292148590088,128,836790,725770,3628813
1756894096.608095,1.4160292148590088,128,650610,724645,3628845
1756894096.608095,1.4160292148590088,128,421300,732230,3628877
1756894096.608095,1.4160292148590088,128,157520,734310,3628909
1756894096.608095,1.4160292148590088,128,83170,738500,3628941
1756894096.608095,1.4160292148590088,128,301405,758580,3628973
1756894096.608095,1.4160292148590088,128,539780,767305,3629005
1756894096.608095,1.4160292148590088,128,673500,781240,3629037
1756894096.608095,1.4160292148590088,128,838850,791765,3629069
1756894096.608095,1.4160292148590088,128,1086380,799570,3629101
1756894096.608095,1.4160292148590088,128,1116905,769815,3629133
1756894096.608095,1.4160292148590088,128,1190475,773590,3629165
1756894096.608095,1.4160292148590088,128,1269300,772055,3629197
1756894096.608095,1.4160292148590088,128,1336025,773830,3629229
1756894096.608095,1.4160292148590088,128,1385075,771635,3629261
1756894096.608095,1.4160292148590088,128,1409750,775500,3629293
1756894096.608095,1.4160292148590088,128,1397165,772880,3629325
1756894096.608095,1.4160292148590088,128,1368850,773010,3629357
1756894096.608095,1.4160292148590088,128,1320095,772940,3629389
1756894096.608095,1.4160292148590088,128,1194510,757850,3629421
1756894096.608095,1.4160292148590088,128,956265,728525,3629453
1756894096.608095,1.4160292148590088,128,743705,731165,3629485
1756894096.608095,1.4160292148590088,128,546625,726225,3629517
1756894096.608095,1.4160292148590088,128,286250,733545,3629549
1756894096.608095,1.4160292148590088,128,162585,734385,3629581
1756894096.608095,1.4160292148590088,128,112450,745920,3629613
1756894096.608095,1.4160292148590088,128,494380,765985,3629645
1756894096.608095,1.4160292148590088,128,598945,773800,3629677
1756894096.608095,1.4160292148590088,128,748170,781220,3629709
1756894096.608095,1.4160292148590088,128,988420,804175,3629741
1756894096.608095,1.4160292148590088,128,1102020,776930,3629773
1756894096.608095,1.4160292148590088,128,1154610,769980,3629805
1756894096.608095,1.4160292148590088,128,1228460,770340,3629837
1756894096.608095,1.4160292148590088,128,1302865,771740,3629869
1756894096.608095,1.4160292148590088,128,1363265,772460,3629901
1756894096.608095,1.4160292148590088,128,1401245,772710,3629933
1756894096.608095,1.4160292148590088,128,1402525,774005,3629965
1756894096.608095,1.4160292148590088,128,1385600,774480,3629997
1756894096.608095,1.4160292148590088,128,1345035,772200,3630029
1756894096.608095,1.4160292148590088,128,1270285,771760,3630061
1756894096.608095,1.4160292148590088,128,1083380,741740,3630093
1756894096.608095,1.4160292148590088,128,831015,725235,3630125
1756894096.608095,1.4160292148590088,128,645680,726210,3630157
1756894096.608095,1.4160292148590088,128,393610,730735,3630189
1756894096.608095,1.4160292148590088,128,245595,734010,3630221
1756894096.608095,1.4160292148590088,128,62930,738440,3630253
1756894096.608095,1.4160292148590088,128,289160,762540,3630285
1756894096.608095,1.4160292148590088,128,541140,767265,3630317
1756894096.608095,1.4160292148590088,128,676455,782430,3630349
1756894096.608095,1.4160292148590088,128,840130,792995,3630381
1756894096.608095,1.4160292148590088,128,1086585,798865,3630413
1756894096.608095,1.4160292148590088,128,1117620,773265,3630445
1756894096.608095,1.4160292148590088,128,1190610,773670,3630477
1756894096.608095,1.4160292148590088,128,1269765,771765,3630509
1756894096.608095,1.4160292148590088,128,1335120,773050,3630541
1756894096.608095,1.4160292148590088,128,1384285,770820,3630573
1756894096.608095,1.4160292148590088,128,1406730,774810,3630605
1756894096.608095,1.4160292148590088,128,1394660,773820,3630637
1756894096.608095,1.4160292148590088,128,1365515,774260,3630669
1756894096.608095,1.4160292148590088,128,1314860,772810,3630701
1756894096.608095,1.4160292148590088,128,1186295,757425,3630733
1756894096.608095,1.4160292148590088,128,945765,730590,3630765
1756894096.608095,1.4160292148590088,128,737675,732030,3630797
1756894096.608095,1.4160292148590088,128,636190,725815,3630829
1756894096.608095,1.4160292148590088,128,366805,733490,3630861
1756894096.608095,1.4160292148590088,128,118190,735555,3630893
1756894096.608095,1.4160292148590088,128,69025,747600,3630925
1756894096.608095,1.4160292148590088,128,484220,766680,3630957
1756894096.608095,1.4160292148590088,128,597875,773785,3630989
1756894096.608095,1.4160292148590088,128,747520,782900,3631021
1756894096.608095,1.4160292148590088,128,992975,804635,3631053
1756894096.608095,1.4160292148590088,128,1100840,778410,3631085
1756894096.608095,1.4160292148590088,128,1153965,770955,3631117
1756894096.608095,1.4160292148590088,128,1230535,772905,3631149
1756894096.608095,1.4160292148590088,128,1304965,774670,3631181
1756894096.608095,1.4160292148590088,128,1364415,772420,3631213
1756894096.608095,1.4160292148590088,128,1403175,774710,3631245
1756894096.608095,1.4160292148590088,128,1400605,774775,3631277
1756894096.608095,1.4160292148590088,128,1383385,774825,3631309
1756894096.608095,1.4160292148590088,128,1342455,774530,3631341
1756894096.608095,1.4160292148590088,128,1262180,770230,3631373
1756894096.608095,1.4160292148590088,128,1067040,739385,3631405
1756894096.608095,1.4160292148590088,128,815575,727180,3631437
1756894096.608095,1.4160292148590088,128,731160,730055,3631469
1756894096.608095,1.4160292148590088,128,503810,729090,3631501
1756894096.608095,1.4160292148590088,128,205935,734510,3631533
1756894096.608095,1.4160292148590088,128,27490,739205,3631565
1756894096.608095,1.4160292148590088,128,299505,763225,3631597
1756894096.608095,1.4160292148590088,128,542400,769420,3631629
1756894096.608095,1.4160292148590088,128,681175,781750,3631661
1756894096.608095,1.4160292148590088,128,854170,795250,3631693
1756894096.608095,1.4160292148590088,128,1089680,794345,3631725
1756894096.608095,1.4160292148590088,128,1119225,771475,3631757
1756894096.608095,1.4160292148590088,128,1192855,773090,3631789
1756894096.608095,1.4160292148590088,128,1272290,771335,3631821
1756894096.608095,1.4160292148590088,128,1337110,773175,3631853
1756894096.608095,1.4160292148590088,128,1387280,771965,3631885
1756894096.608095,1.4160292148590088,128,1407435,775700,3631917
1756894096.608095,1.4160292148590088,128,1394420,772370,3631949
1756894096.608095,1.4160292148590088,128,1363860,772325,3631981
1756894096.608095,1.4160292148590088,128,1313775,774200,3632013
1756894096.608095,1.4160292148590088,128,1178935,753820,3632045
1756894096.608095,1.4160292148590088,128,933955,726510,3632077
1756894096.608095,1.4160292148590088,128,811960,726595,3632109
1756894096.608095,1.4160292148590088,128,622865,724335,3632141
1756894096.608095,1.4160292148590088,128,322585,732035,3632173
1756894096.608095,1.4160292148590088,128,72585,734105,3632205
1756894096.608095,1.4160292148590088,128,55570,745330,3632237
1756894096.608095,1.4160292148590088,128,490300,764245,3632269
1756894096.608095,1.4160292148590088,128,609520,775175,3632301
1756894096.608095,1.4160292148590088,128,758785,783640,3632333
1756894096.608095,1.4160292148590088,128,1007490,802015,3632365
1756894096.608095,1.4160292148590088,128,1104220,775820,3632397
1756894096.608095,1.4160292148590088,128,1161335,769280,3632429
1756894096.608095,1.4160292148590088,128,1237590,770600,3632461
1756894096.608095,1.4160292148590088,128,1311155,772045,3632493
1756894096.608095,1.4160292148590088,128,1371055,773895,3632525
1756894096.608095,1.4160292148590088,128,1407520,773775,3632557
1756894096.608095,1.4160292148590088,128,1403875,773185,3632589
1756894096.608095,1.4160292148590088,128,1386230,774100,3632621
1756894096.608095,1.4160292148590088,128,1344495,769475,3632653
1756894096.608095,1.4160292148590088,128,1264415,771515,3632685
1756894096.608095,1.4160292148590088,128,1065535,737990,3632717
1756894096.608095,1.4160292148590088,128,935980,727865,3632749
1756894096.608095,1.4160292148590088,128,734750,731050,3632781
1756894096.608095,1.4160292148590088,128,484115,725410,3632813
1756894096.608095,1.4160292148590088,128,179660,733445,3632845
1756894096.608095,1.4160292148590088,128,10915,738495,3632877
1756894096.608095,1.4160292148590088,128,314180,762230,3632909
1756894096.608095,1.4160292148590088,128,552585,766770,3632941
1756894096.608095,1.4160292148590088,128,693365,781195,3632973
1756894096.608095,1.4160292148590088,128,868445,794535,3633005
1756894096.608095,1.4160292148590088,128,1098445,793255,3633037
1756894096.608095,1.4160292148590088,128,1128265,771155,3633069
1756894096.608095,1.4160292148590088,128,1201480,771810,3633101
1756894096.608095,1.4160292148590088,128,1281165,771295,3633133
1756894096.6237204,1.431654691696167,128,1345535,771985,3633165
1756894096.6237204,1.431654691696167,128,1392880,770820,3633197
1756894096.6237204,1.431654691696167,128,1412775,774545,3633229
1756894096.6237204,1.431654691696167,128,1399985,773130,3633261
1756894096.6237204,1.431654691696167,128,1368055,770810,3633293
1756894096.6237204,1.431654691696167,128,1315990,771845,3633325
1756894096.6237204,1.431654691696167,128,1181005,754345,3633357
1756894096.6237204,1.431654691696167,128,1063890,736865,3633389
1756894096.6237204,1.431654691696167,128,816365,725790,3633421
1756894096.6237204,1.431654691696167,128,627510,722380,3633453
1756894096.6237204,1.431654691696167,128,322750,731965,3633485
1756894096.6237204,1.431654691696167,128,72710,734520,3633517
1756894096.6237204,1.431654691696167,128,60100,746940,3633549
1756894096.6237204,1.431654691696167,128,501055,766850,3633581
1756894096.6237204,1.431654691696167,128,616875,773840,3633613
1756894096.6237204,1.431654691696167,128,762515,781870,3633645
1756894096.6237204,1.431654691696167,128,1014590,803595,3633677
1756894096.6237204,1.431654691696167,128,1106320,775350,3633709
1756894096.6237204,1.431654691696167,128,1165360,771100,3633741
1756894096.6237204,1.431654691696167,128,1240540,770040,3633773
1756894096.6237204,1.431654691696167,128,1314125,770570,3633805
1756894096.6237204,1.431654691696167,128,1371505,770010,3633837
1756894096.6237204,1.431654691696167,128,1408410,771375,3633869
1756894096.6237204,1.431654691696167,128,1404170,773370,3633901
1756894096.6237204,1.431654691696167,128,1385825,771615,3633933
1756894096.6237204,1.431654691696167,128,1343985,772470,3633965
1756894096.6237204,1.431654691696167,128,1260210,768190,3633997
1756894096.6237204,1.431654691696167,128,1174180,751835,3634029
1756894096.6237204,1.431654691696167,128,926015,728725,3634061
1756894096.6237204,1.431654691696167,128,726625,730860,3634093
1756894096.6237204,1.431654691696167,128,459275,726185,3634125
1756894096.6237204,1.431654691696167,128,161355,734495,3634157
1756894096.6237204,1.431654691696167,128,-85,739945,3634189
1756894096.6237204,1.431654691696167,128,320020,764075,3634221
1756894096.6237204,1.431654691696167,128,553565,768015,3634253
1756894096.6237204,1.431654691696167,128,698030,782105,3634285
1756894096.6237204,1.431654691696167,128,878820,796230,3634317
1756894096.6237204,1.431654691696167,128,1098215,790005,3634349
1756894096.6237204,1.431654691696167,128,1128390,770340,3634381
1756894096.6237204,1.431654691696167,128,1201170,770910,3634413
1756894096.6237204,1.431654691696167,128,1280100,769800,3634445
1756894096.6237204,1.431654691696167,128,1345180,771615,3634477
1756894096.6237204,1.431654691696167,128,1392055,771645,3634509
1756894096.6237204,1.431654691696167,128,1409735,775915,3634541
1756894096.6237204,1.431654691696167,128,1395785,773045,3634573
1756894096.6237204,1.431654691696167,128,1363605,773845,3634605
1756894096.6237204,1.431654691696167,128,1308780,772660,3634637
1756894096.6237204,1.431654691696167,128,1255430,767885,3634669
1756894096.6237204,1.431654691696167,128,1047170,736685,3634701
1756894096.6237204,1.431654691696167,128,802910,726980,3634733
1756894096.6237204,1.431654691696167,128,606740,722740,3634765
1756894096.6237204,1.431654691696167,128,284585,732215,3634797
1756894096.6237204,1.431654691696167,128,41120,737335,3634829
1756894096.6237204,1.431654691696167,128,59595,749340,3634861
1756894096.6237204,1.431654691696167,128,501085,766730,3634893
1756894096.6237204,1.431654691696167,128,619970,775660,3634925
1756894096.6237204,1.431654691696167,128,766745,782605,3634957
1756894096.6237204,1.431654691696167,128,1025245,804690,3634989
1756894096.6237204,1.431654691696167,128,1104235,772170,3635021
1756894096.6237204,1.431654691696167,128,1166030,771165,3635053
1756894096.6237204,1.431654691696167,128,1242975,771665,3635085
1756894096.6237204,1.431654691696167,128,1314270,772790,3635117
1756894096.633759,1.4416933059692383,128,1371220,771305,3635149
1756894096.633759,1.4416933059692383,128,1406705,775480,3635181
1756894096.633759,1.4416933059692383,128,1400970,772655,3635213
1756894096.633759,1.4416933059692383,128,1381945,774500,3635245
1756894096.633759,1.4416933059692383,128,1339760,771490,3635277
1756894096.633759,1.4416933059692383,128,1306660,774125,3635309
1756894096.633759,1.4416933059692383,128,1160880,752340,3635341
1756894096.633759,1.4416933059692383,128,911520,726215,3635373
1756894096.633759,1.4416933059692383,128,716415,730785,3635405
1756894096.633759,1.4416933059692383,128,468725,729290,3635437
1756894096.633759,1.4416933059692383,128,170745,731830,3635469
1756894096.633759,1.4416933059692383,128,22810,737905,3635501
1756894096.633759,1.4416933059692383,128,360915,763260,3635533
1756894096.633759,1.4416933059692383,128,557030,767665,3635565
1756894096.633759,1.4416933059692383,128,702090,782205,3635597
1756894096.633759,1.4416933059692383,128,887560,798570,3635629
1756894096.633759,1.4416933059692383,128,1098995,788890,3635661
1756894096.633759,1.4416933059692383,128,1130065,771540,3635693
1756894096.633759,1.4416933059692383,128,1203030,771050,3635725
1756894096.633759,1.4416933059692383,128,1283675,771820,3635757
1756894096.633759,1.4416933059692383,128,1348085,772865,3635789
1756894096.633759,1.4416933059692383,128,1394815,772885,3635821
1756894096.633759,1.4416933059692383,128,1410260,776555,3635853
1756894096.633759,1.4416933059692383,128,1396580,775510,3635885
1756894096.633759,1.4416933059692383,128,1362180,772550,3635917
1756894096.633759,1.4416933059692383,128,1340470,772500,3635949
1756894096.633759,1.4416933059692383,128,1250465,769340,3635981
1756894096.633759,1.4416933059692383,128,1039830,736265,3636013
1756894096.633759,1.4416933059692383,128,795235,729255,3636045
1756894096.633759,1.4416933059692383,128,606555,725430,3636077
1756894096.633759,1.4416933059692383,128,351885,732410,3636109
1756894096.633759,1.4416933059692383,128,118415,736780,3636141
1756894096.633759,1.4416933059692383,128,159135,750865,3636173
1756894096.633759,1.4416933059692383,128,514785,767185,3636205
1756894096.633759,1.4416933059692383,128,626660,778610,3636237
1756894096.633759,1.4416933059692383,128,774640,784160,3636269
1756894096.633759,1.4416933059692383,128,1034880,804365,3636301
1756894096.633759,1.4416933059692383,128,1105715,774435,3636333
1756894096.633759,1.4416933059692383,128,1170550,772865,3636365
1756894096.633759,1.4416933059692383,128,1246880,771985,3636397
1756894096.633759,1.4416933059692383,128,1317285,774080,3636429
1756894096.633759,1.4416933059692383,128,1373960,772850,3636461
1756894096.633759,1.4416933059692383,128,1408210,774930,3636493
1756894096.633759,1.4416933059692383,128,1400750,775070,3636525
1756894096.633759,1.4416933059692383,128,1380550,773510,3636557
1756894096.633759,1.4416933059692383,128,1359680,773640,3636589
1756894096.633759,1.4416933059692383,128,1302180,774110,3636621
1756894096.633759,1.4416933059692383,128,1150240,750230,3636653
1756894096.633759,1.4416933059692383,128,900895,726605,3636685
1756894096.633759,1.4416933059692383,128,706345,730895,3636717
1756894096.633759,1.4416933059692383,128,520675,730310,3636749
1756894096.633759,1.4416933059692383,128,252250,733945,3636781
1756894096.633759,1.4416933059692383,128,108375,740865,3636813
1756894096.633759,1.4416933059692383,128,422850,765575,3636845
1756894096.633759,1.4416933059692383,128,559140,770155,3636877
1756894096.633759,1.4416933059692383,128,707080,783840,3636909
1756894096.633759,1.4416933059692383,128,900780,797405,3636941
1756894096.633759,1.4416933059692383,128,1100945,788815,3636973
1756894096.633759,1.4416933059692383,128,1132600,770980,3637005
1756894096.6397645,1.4476988315582275,128,1205275,771550,3637037
1756894096.6397645,1.4476988315582275,128,1284225,769770,3637069
1756894096.6397645,1.4476988315582275,128,1348075,771535,3637101
1756894096.6397645,1.4476988315582275,128,1394745,772435,3637133
1756894096.6397645,1.4476988315582275,128,1407015,775810,3637165
1756894096.6397645,1.4476988315582275,128,1393110,772415,3637197
1756894096.6397645,1.4476988315582275,128,1380335,774805,3637229
1756894096.6397645,1.4476988315582275,128,1336415,772480,3637261
1756894096.6397645,1.4476988315582275,128,1242820,765980,3637293
1756894096.6397645,1.4476988315582275,128,1028480,735355,3637325
1756894096.6397645,1.4476988315582275,128,787980,728740,3637357
1756894096.6397645,1.4476988315582275,128,598960,722435,3637389
1756894096.6397645,1.4476988315582275,128,375725,733795,3637421
1756894096.6397645,1.4476988315582275,128,139190,736585,3637453
1756894096.6397645,1.4476988315582275,128,189680,752410,3637485
1756894096.6397645,1.4476988315582275,128,518230,766525,3637517
1756894096.6397645,1.4476988315582275,128,630915,778635,3637549
1756894096.6397645,1.4476988315582275,128,779160,783935,3637581
1756894096.6397645,1.4476988315582275,128,1042460,803950,3637613
1756894096.6397645,1.4476988315582275,128,1105835,771555,3637645
1756894096.6397645,1.4476988315582275,128,1172505,771805,3637677
1756894096.6397645,1.4476988315582275,128,1249650,771345,3637709
1756894096.6397645,1.4476988315582275,128,1319755,772330,3637741
1756894096.6397645,1.4476988315582275,128,1376100,769880,3637773
1756894096.6397645,1.4476988315582275,128,1409680,773415,3637805
1756894096.6397645,1.4476988315582275,0,1376100,769880,3637837
1756894096.6397645,1.4476988315582275,128,1394465,773745,3637869
1756894096.6397645,1.4476988315582275,128,1358985,771715,3637901
1756894096.6397645,1.4476988315582275,128,1299885,772805,3637933
1756894096.6397645,1.4476988315582275,128,1142490,748375,3637965
1756894096.6397645,1.4476988315582275,128,892100,725780,3637997
1756894096.6397645,1.4476988315582275,128,701790,727300,3638029
1756894096.6397645,1.4476988315582275,128,505730,728715,3638061
1756894096.6397645,1.4476988315582275,128,224085,734240,3638093
1756894096.6397645,1.4476988315582275,128,88190,739120,3638125
1756894096.6397645,1.4476988315582275,128,429345,764660,3638157
1756894096.6397645,1.4476988315582275,128,565400,768030,3638189
1756894096.6397645,1.4476988315582275,128,714015,781725,3638221
1756894096.6397645,1.4476988315582275,128,913650,799235,3638253
1756894096.6397645,1.4476988315582275,128,1104090,786290,3638285
1756894096.6397645,1.4476988315582275,128,1137580,769920,3638317
1756894096.6397645,1.4476988315582275,128,1211145,770500,3638349
1756894096.6397645,1.4476988315582275,128,1290290,771735,3638381
1756894096.6397645,1.4476988315582275,128,1353390,772460,3638413
1756894096.6397645,1.4476988315582275,128,1398280,771625,3638445
1756894096.6397645,1.4476988315582275,128,1410525,773965,3638477
1756894096.6397645,1.4476988315582275,128,1402630,773530,3638509
1756894096.6397645,1.4476988315582275,128,1381550,773070,3638541
1756894096.6397645,1.4476988315582275,128,1337000,770605,3638573
1756894096.6397645,1.4476988315582275,128,1239725,766345,3638605
1756894096.6397645,1.4476988315582275,128,1019970,734675,3638637
1756894096.6397645,1.4476988315582275,128,782775,727975,3638669
1756894096.6397645,1.4476988315582275,128,592110,723705,3638701
1756894096.6397645,1.4476988315582275,128,321575,731455,3638733
1756894096.6397645,1.4476988315582275,128,97095,734740,3638765
1756894096.6397645,1.4476988315582275,128,172110,751650,3638797
1756894096.6397645,1.4476988315582275,128,521795,765465,3638829
1756894096.6397645,1.4476988315582275,128,640260,777505,3638861
1756894096.6397645,1.4476988315582275,128,791320,785330,3638893
1756894096.6397645,1.4476988315582275,128,1051565,801095,3638925
1756894096.6397645,1.4476988315582275,128,1109345,772535,3638957
1756894096.6397645,1.4476988315582275,128,1176375,771875,3638989
1756894096.6397645,1.4476988315582275,128,1254070,772010,3639021
1756894096.6397645,1.4476988315582275,128,1323995,771145,3639053
1756894096.6397645,1.4476988315582275,128,1379235,771810,3639085
1756894096.6397645,1.4476988315582275,128,1399180,770865,3639117
1756894096.6397645,1.4476988315582275,128,1409295,775490,3639149
1756894096.6397645,1.4476988315582275,128,1394135,771360,3639181
1756894096.6397645,1.4476988315582275,128,1358460,771985,3639213
1756894096.6397645,1.4476988315582275,128,1297070,772455,3639245
1756894096.6397645,1.4476988315582275,128,1138355,747385,3639277
1756894096.6397645,1.4476988315582275,128,885705,725160,3639309
1756894096.6397645,1.4476988315582275,128,694535,726445,3639341
1756894096.6397645,1.4476988315582275,128,473935,730510,3639373
1756894096.6397645,1.4476988315582275,128,190145,731290,3639405
1756894096.6397645,1.4476988315582275,128,67480,739910,3639437
1756894097.5433738,2.3513081073760986,128,433610,764530,3639469
1756894097.5433738,2.3513081073760986,128,569210,768600,3639501
1756894097.5433738,2.3513081073760986,128,718700,781235,3639533
1756894097.5433738,2.3513081073760986,128,924210,801325,3639565
1756894097.5448818,2.352816104888916,128,1104310,784575,3639597
1756894097.5448818,2.352816104888916,128,1140270,770495,3639629
1756894097.5448818,2.352816104888916,128,1212840,770160,3639661
1756894097.5448818,2.352816104888916,128,1291315,771015,3639693
1756894097.5448818,2.352816104888916,128,1354130,771815,3639725
1756894097.5458875,2.3538217544555664,128,1378720,770350,3639757
1756894097.5458875,2.3538217544555664,128,1409395,772245,3639789
1756894097.5458875,2.3538217544555664,128,1400895,773980,3639821
1756894097.5468867,2.354820966720581,128,1378060,771640,3639853
1756894097.5468867,2.354820966720581,128,1333300,770160,3639885
1756894097.5468867,2.354820966720581,128,1232015,764150,3639917
1756894097.5468867,2.354820966720581,128,1009155,733300,3639949
1756894097.5468867,2.354820966720581,128,774825,727170,3639981
1756894097.5468867,2.354820966720581,128,582430,723205,3640013
1756894097.5468867,2.354820966720581,128,309855,733630,3640045
1756894097.5468867,2.354820966720581,128,86110,734935,3640077
1756894097.5468867,2.354820966720581,128,188075,754125,3640109
1756894097.5468867,2.354820966720581,128,524735,766695,3640141
1756894097.5468867,2.354820966720581,128,643330,778230,3640173
1756894097.5468867,2.354820966720581,128,794160,784680,3640205
1756894097.5468867,2.354820966720581,128,1055490,798840,3640237
1756894097.547887,2.355821371078491,128,1108145,770785,3640269
1756894097.547887,2.355821371078491,128,1176925,770475,3640301
1756894097.547887,2.355821371078491,128,1254730,769485,3640333
1756894097.547887,2.355821371078491,128,1322910,769605,3640365
1756894097.547887,2.355821371078491,128,1353165,768785,3640397
1756894097.547887,2.355821371078491,128,1398350,770720,3640429
1756894097.547887,2.355821371078491,128,1405380,771375,3640461
1756894097.547887,2.355821371078491,128,1391920,772945,3640493
1756894097.547887,2.355821371078491,128,1355035,771050,3640525
1756894097.5598867,2.367820978164673,128,1291690,771745,3640557
1756894097.5598867,2.367820978164673,128,1125470,744620,3640589
1756894097.5598867,2.367820978164673,128,873700,723195,3640621
1756894097.5598867,2.367820978164673,128,684955,726915,3640653
1756894097.5598867,2.367820978164673,128,459165,729020,3640685
1756894097.5598867,2.367820978164673,128,177305,732205,3640717
1756894097.5598867,2.367820978164673,128,59485,740735,3640749
1756894097.5598867,2.367820978164673,128,438295,765800,3640781
1756894097.5598867,2.367820978164673,128,573135,767715,3640813
1756894097.5598867,2.367820978164673,128,722890,781735,3640845
1756894097.5598867,2.367820978164673,128,936165,801145,3640877
1756894097.5598867,2.367820978164673,128,1103085,781795,3640909
1756894097.5598867,2.367820978164673,128,1141735,770015,3640941
1756894097.560888,2.3688223361968994,128,1214945,770020,3640973
1756894097.560888,2.3688223361968994,128,1292970,770420,3641005
1756894097.560888,2.3688223361968994,128,1324835,770665,3641037
1756894097.560888,2.3688223361968994,128,1380290,771690,3641069
1756894097.560888,2.3688223361968994,128,1409435,772000,3641101
1756894097.560888,2.3688223361968994,128,1399025,772205,3641133
1756894097.560888,2.3688223361968994,128,1376180,773765,3641165
1756894097.560888,2.3688223361968994,128,1330050,771300,3641197
1756894097.560888,2.3688223361968994,128,1225140,762455,3641229
1756894097.560888,2.3688223361968994,128,999015,733495,3641261
1756894097.560888,2.3688223361968994,128,769860,728770,3641293
1756894097.560888,2.3688223361968994,128,572240,723565,3641325
1756894097.560888,2.3688223361968994,128,284650,732390,3641357
1756894097.560888,2.3688223361968994,128,65425,736400,3641389
1756894097.5618877,2.3698220252990723,128,193445,753575,3641421
1756894097.5618877,2.3698220252990723,128,527100,766250,3641453
1756894097.5618877,2.3698220252990723,128,649205,776710,3641485
1756894097.5618877,2.3698220252990723,128,801690,785645,3641517
1756894097.5618877,2.3698220252990723,128,1062695,799795,3641549
1756894097.5618877,2.3698220252990723,128,1109185,771710,3641581
1756894097.5618877,2.3698220252990723,128,1179425,769695,3641613
1756894097.5618877,2.3698220252990723,128,1258140,770940,3641645
1756894097.5618877,2.3698220252990723,128,1293625,770800,3641677
1756894097.5618877,2.3698220252990723,128,1355645,771160,3641709
1756894097.5618877,2.3698220252990723,128,1398720,771465,3641741
1756894097.5618877,2.3698220252990723,128,1405050,774480,3641773
1756894097.5628874,2.370821714401245,128,1390520,772425,3641805
1756894097.5628874,2.370821714401245,128,1352850,771515,3641837
1756894097.5628874,2.370821714401245,128,1287495,772745,3641869
1756894097.5628874,2.370821714401245,128,1115850,744360,3641901
1756894097.5628874,2.370821714401245,128,862220,723395,3641933
1756894097.5628874,2.370821714401245,128,677365,726535,3641965
1756894097.5628874,2.370821714401245,128,433365,728595,3641997
1756894097.5628874,2.370821714401245,128,158865,731100,3642029
1756894097.5628874,2.370821714401245,128,55565,740500,3642061
1756894097.5628874,2.370821714401245,128,448375,764620,3642093
1756894097.5628874,2.370821714401245,128,577520,769825,3642125
1756894097.5628874,2.370821714401245,128,728760,781360,3642157
1756894097.5628874,2.370821714401245,128,947385,799725,3642189
1756894097.5628874,2.370821714401245,128,1103790,780035,3642221
1756894097.5638874,2.371821641921997,128,1145665,770770,3642253
1756894097.5638874,2.371821641921997,128,1218870,768925,3642285
1756894097.5638874,2.371821641921997,128,1261340,771395,3642317
1756894097.5638874,2.371821641921997,128,1328325,770940,3642349
1756894097.5638874,2.371821641921997,128,1382200,770705,3642381
1756894097.5638874,2.371821641921997,128,1410455,773280,3642413
1756894097.5638874,2.371821641921997,128,1399410,772320,3642445
1756894097.5638874,2.371821641921997,128,1374825,771395,3642477
1756894097.5638874,2.371821641921997,128,1328985,771750,3642509
1756894097.5638874,2.371821641921997,128,1216805,759570,3642541
1756894097.5638874,2.371821641921997,128,987295,730885,3642573
1756894097.5638874,2.371821641921997,128,762325,730345,3642605
1756894097.5638874,2.371821641921997,128,565110,724260,3642637
1756894097.5638874,2.371821641921997,128,277935,730660,3642669
1756894097.5648868,2.372821092605591,128,70870,736260,3642701
1756894097.5648868,2.372821092605591,128,221115,755435,3642733
1756894097.5648868,2.372821092605591,128,528740,765420,3642765
1756894097.5648868,2.372821092605591,128,655965,777980,3642797
1756894097.5648868,2.372821092605591,128,812430,786680,3642829
1756894097.5648868,2.372821092605591,128,1072680,797355,3642861
1756894097.5648868,2.372821092605591,128,1111745,769755,3642893
1756894097.5648868,2.372821092605591,128,1182470,769515,3642925
1756894097.5648868,2.372821092605591,128,1219525,768405,3642957
1756894097.5648868,2.372821092605591,128,1296750,770335,3642989
1756894097.5648868,2.372821092605591,128,1358135,770935,3643021
1756894097.5648868,2.372821092605591,128,1401565,771470,3643053
1756894097.5648868,2.372821092605591,128,1404055,771500,3643085
1756894097.5648868,2.372821092605591,128,1389425,770725,3643117
1756894097.565886,2.3738203048706055,128,1349890,770625,3643149
1756894097.565886,2.3738203048706055,128,1280435,770590,3643181
1756894097.565886,2.3738203048706055,128,1104270,741005,3643213
1756894097.565886,2.3738203048706055,128,850905,724880,3643245
1756894097.565886,2.3738203048706055,128,664820,723685,3643277
1756894097.565886,2.3738203048706055,128,419875,729655,3643309
1756894097.565886,2.3738203048706055,128,143795,734070,3643341
1756894097.565886,2.3738203048706055,128,60500,740605,3643373
1756894097.565886,2.3738203048706055,128,461845,765940,3643405
1756894097.5668876,2.374821901321411,128,582855,769570,3643437
1756894097.5668876,2.374821901321411,128,733680,779300,3643469
1756894097.5668876,2.374821901321411,128,960095,800680,3643501
1756894097.5668876,2.374821901321411,128,1102510,777400,3643533
1756894097.5668876,2.374821901321411,128,1147770,768240,3643565
1756894097.5668876,2.374821901321411,128,1184260,769415,3643597
1756894097.5668876,2.374821901321411,128,1262595,769015,3643629
1756894097.5668876,2.374821901321411,128,1330105,770570,3643661
1756894097.5668876,2.374821901321411,128,1382765,769610,3643693
1756894097.5668876,2.374821901321411,128,1408955,772360,3643725
1756894097.5678859,2.3758201599121094,128,1397565,772275,3643757
1756894097.5678859,2.3758201599121094,128,1371685,772495,3643789
1756894097.5678859,2.3758201599121094,128,1325730,773040,3643821
1756894097.5678859,2.3758201599121094,128,1208385,758670,3643853
1756894097.5678859,2.3758201599121094,128,976905,729530,3643885
1756894097.5688858,2.3768200874328613,128,754390,728440,3643917
1756894097.5688858,2.3768200874328613,128,553270,724335,3643949
1756894097.5688858,2.3768200874328613,128,262550,733025,3643981
1756894097.5688858,2.3768200874328613,128,62610,737060,3644013
1756894097.5698862,2.3778204917907715,128,240685,756010,3644045
1756894097.5698862,2.3778204917907715,128,533745,764760,3644077
1756894097.5698862,2.3778204917907715,128,662505,778130,3644109
1756894097.5698862,2.3778204917907715,128,823795,788745,3644141
1756894097.5698862,2.3778204917907715,128,1078535,798050,3644173
1756894097.5708866,2.3788208961486816,128,1114090,768700,3644205
1756894097.5708866,2.3788208961486816,128,1149535,769065,3644237
1756894097.5708866,2.3788208961486816,128,1223605,771050,3644269
1756894097.5708866,2.3788208961486816,128,1299075,768065,3644301
1756894097.571887,2.379821300506592,128,1361770,772100,3644333
1756894097.571887,2.379821300506592,128,1402280,769965,3644365
1756894097.571887,2.379821300506592,128,1405395,773955,3644397
1756894097.571887,2.379821300506592,128,1389590,772170,3644429
1756894097.571887,2.379821300506592,128,1350130,769695,3644461
1756894097.572887,2.3808212280273438,128,1280055,771575,3644493
1756894097.572887,2.3808212280273438,128,1098790,740755,3644525
1756894097.572887,2.3808212280273438,128,847805,725410,3644557
1756894097.573886,2.3818202018737793,128,660795,722900,3644589
1756894097.573886,2.3818202018737793,128,416720,727965,3644621
1756894097.573886,2.3818202018737793,128,137850,733405,3644653
1756894097.5758882,2.383822441101074,128,65910,742765,3644685
1756894097.576886,2.3848202228546143,128,468600,765250,3644717
1756894097.576886,2.3848202228546143,128,588315,770185,3644749
1756894097.5819418,2.389876127243042,128,738925,781510,3644781
1756894097.5819418,2.389876127243042,128,969815,800415,3644813
1756894097.5819418,2.389876127243042,128,1102965,777355,3644845
1756894097.5828867,2.3908209800720215,128,1115455,768885,3644877
1756894097.5828867,2.3908209800720215,128,1187260,770800,3644909
1756894097.5828867,2.3908209800720215,128,1265840,769360,3644941
1756894097.5838866,2.3918209075927734,128,1331680,769485,3644973
1756894097.5838866,2.3918209075927734,128,1384500,771535,3645005
1756894097.589886,2.397820234298706,128,1409685,773600,3645037
1756894097.5908859,2.398820161819458,128,1397190,769760,3645069
1756894097.5908859,2.398820161819458,128,1371110,772135,3645101
1756894097.5908859,2.398820161819458,128,1322890,771605,3645133
1756894097.5923903,2.400324583053589,128,1202725,758505,3645165
1756894097.5933943,2.4013285636901855,128,969560,730850,3645197
1756894097.5943942,2.4023284912109375,128,751900,728700,3645229
1756894097.5943942,2.4023284912109375,128,550520,723390,3645261
1756894097.5973947,2.4053289890289307,128,257510,731475,3645293
1756894097.5973947,2.4053289890289307,128,62780,736740,3645325
1756894097.5983953,2.40632963180542,128,260785,757145,3645357
1756894097.5983953,2.40632963180542,128,537290,766700,3645389
1756894097.6003945,2.4083287715911865,128,668475,779020,3645421
1756894097.6003945,2.4083287715911865,128,827800,787745,3645453
1756894097.601394,2.4093282222747803,128,972095,802340,3645485
1756894097.601394,2.4093282222747803,128,1101205,774430,3645517
1756894097.6023936,2.410327911376953,128,1150705,769735,3645549
1756894097.6023936,2.410327911376953,128,1224640,769445,3645581
1756894097.6033943,2.4113285541534424,128,1301050,770970,3645613
1756894097.6043956,2.412329912185669,128,1361055,768895,3645645
1756894097.6063938,2.414328098297119,128,1403365,772440,3645677
1756894097.6073937,2.415328025817871,128,1403310,771285,3645709
1756894097.6083941,2.4163284301757812,128,1387705,771975,3645741
1756894097.6083941,2.4163284301757812,128,1347395,770305,3645773
1756894097.6083941,2.4163284301757812,128,1274640,770610,3645805
1756894097.6083941,2.4163284301757812,128,1088040,738335,3645837
1756894097.6093962,2.417330503463745,128,838400,725975,3645869
1756894097.6093962,2.417330503463745,128,651365,723220,3645901
1756894097.6093962,2.417330503463745,128,415555,729135,3645933
1756894097.610394,2.418328285217285,128,152090,734650,3645965
1756894097.610394,2.418328285217285,128,85035,742870,3645997
1756894097.610394,2.418328285217285,128,481155,764700,3646029
1756894097.610394,2.418328285217285,128,592130,771555,3646061
1756894097.6113951,2.4193294048309326,128,742670,780830,3646093
1756894097.6113951,2.4193294048309326,128,833845,788890,3646125
1756894097.6113951,2.4193294048309326,128,1082565,794680,3646157
1756894097.6113951,2.4193294048309326,128,1115180,769515,3646189
1756894097.6123962,2.42033052444458,128,1187170,770070,3646221
1756894097.6123962,2.42033052444458,128,1266240,770010,3646253
1756894097.6153939,2.423328161239624,128,1332185,770400,3646285
1756894097.6153939,2.423328161239624,128,1382630,769625,3646317
1756894097.6153939,2.423328161239624,128,1405565,773470,3646349
1756894097.6153939,2.423328161239624,128,1393310,771720,3646381
1756894097.6163945,2.4243288040161133,128,1365130,770645,3646413
1756894097.6163945,2.4243288040161133,128,1316480,772015,3646445
1756894097.617394,2.425328254699707,128,1195505,757465,3646477
1756894097.617394,2.425328254699707,128,957980,729205,3646509
1756894097.617394,2.425328254699707,128,743165,730170,3646541
1756894097.617394,2.425328254699707,128,549560,724120,3646573
1756894097.618394,2.426328182220459,128,273315,732460,3646605
1756894097.618394,2.426328182220459,128,83380,736840,3646637
1756894097.621394,2.429328203201294,128,310560,758280,3646669
1756894097.621394,2.429328203201294,128,538540,765540,3646701
1756894097.621394,2.429328203201294,128,672240,778470,3646733
1756894097.621394,2.429328203201294,128,741545,779140,3646765
1756894097.621394,2.429328203201294,128,980225,801470,3646797
1756894097.621394,2.429328203201294,128,1098440,775295,3646829
1756894097.621394,2.429328203201294,128,1149355,770580,3646861
1756894097.621394,2.429328203201294,128,1222355,767175,3646893
1756894097.621394,2.429328203201294,128,1298145,770525,3646925
1756894097.6223943,2.430328607559204,128,1358320,769840,3646957
1756894097.6223943,2.430328607559204,128,1396495,770435,3646989
1756894097.6223943,2.430328607559204,128,1398395,773285,3647021
1756894097.6223943,2.430328607559204,128,1380930,771935,3647053
1756894097.6223943,2.430328607559204,128,1340750,769440,3647085
1756894097.6223943,2.430328607559204,128,1266445,769745,3647117
1756894097.6223943,2.430328607559204,128,1081520,740895,3647149
1756894097.6223943,2.430328607559204,128,828885,725200,3647181
1756894097.6223943,2.430328607559204,128,642065,722980,3647213
1756894097.6223943,2.430328607559204,128,379535,730120,3647245
1756894097.623394,2.431328296661377,128,116280,733915,3647277
1756894097.623394,2.431328296661377,128,62150,745215,3647309
1756894097.623394,2.431328296661377,128,482745,767495,3647341
1756894097.623394,2.431328296661377,128,594295,772515,3647373
1756894097.623394,2.431328296661377,128,672360,779810,3647405
1756894097.623394,2.431328296661377,128,836710,790065,3647437
1756894097.623394,2.431328296661377,128,1078995,795135,3647469
1756894097.6273952,2.4353294372558594,128,1112175,770020,3647501
1756894097.6273952,2.4353294372558594,128,1184575,769515,3647533
1756894097.6273952,2.4353294372558594,128,1265040,770485,3647565
1756894097.6273952,2.4353294372558594,128,1330395,771875,3647597
1756894097.628022,2.4359562397003174,128,1379725,770890,3647629
1756894097.628022,2.4359562397003174,128,1401650,772580,3647661
1756894097.628022,2.4359562397003174,128,1389850,772370,3647693
1756894097.628022,2.4359562397003174,128,1360430,771560,3647725
1756894097.6293683,2.437302589416504,128,1310190,770765,3647757
1756894097.6293683,2.437302589416504,128,1183620,756575,3647789
1756894097.6293683,2.437302589416504,128,943100,729125,3647821
1756894097.6303828,2.438317060470581,128,735405,729960,3647853
1756894097.6363766,2.4443109035491943,128,516440,724970,3647885
1756894097.6363766,2.4443109035491943,128,221580,731880,3647917
1756894097.6373749,2.4453091621398926,128,37880,736700,3647949
1756894097.6373749,2.4453091621398926,128,295365,760220,3647981
1756894097.6373749,2.4453091621398926,128,537730,766870,3648013
1756894097.6388779,2.446812152862549,128,595660,773625,3648045
1756894097.6388779,2.446812152862549,128,742910,780610,3648077
1756894097.640881,2.44881534576416,128,987095,802445,3648109
1756894097.642883,2.450817346572876,128,1095720,775240,3648141
1756894097.643882,2.4518163204193115,128,1149600,768245,3648173
1756894097.643882,2.4518163204193115,128,1225375,770185,3648205
1756894097.6448822,2.4528164863586426,128,1298970,771130,3648237
1756894097.6458845,2.4538187980651855,128,1357910,770395,3648269
1756894097.646882,2.4548163414001465,128,1394425,772055,3648301
1756894097.648881,2.456815242767334,128,1394185,772750,3648333
1756894097.6508815,2.458815813064575,128,1376605,772140,3648365
1756894097.6508815,2.458815813064575,128,1335305,769475,3648397
1756894097.6518812,2.459815502166748,128,1257365,770720,3648429
1756894097.653881,2.461815357208252,128,1059440,737530,3648461
1756894097.653881,2.461815357208252,128,809110,724345,3648493
1756894097.6548817,2.462815999984741,128,621495,722110,3648525
1756894097.6558816,2.463815927505493,128,356255,728875,3648557
1756894097.6558816,2.463815927505493,128,96470,734080,3648589
1756894097.656881,2.464815378189087,128,71775,743190,3648621
1756894097.657881,2.465815305709839,128,485740,764090,3648653
1756894097.6588845,2.4668188095092773,128,538345,765445,3648685
1756894097.6598818,2.467816114425659,128,676265,779420,3648717
1756894097.6628819,2.470816135406494,128,848780,790705,3648749
1756894097.6628819,2.470816135406494,128,1082380,793645,3648781
1756894097.6628819,2.470816135406494,128,1113170,770185,3648813
1756894097.6638818,2.471816062927246,128,1185425,770135,3648845
1756894097.6688814,2.476815700531006,128,1265415,771070,3648877
1756894097.6688814,2.476815700531006,128,1329835,769960,3648909
1756894097.669881,2.4778153896331787,128,1377510,768670,3648941
1756894097.669881,2.4778153896331787,128,1399195,773275,3648973
1756894097.669881,2.4778153896331787,128,1385525,771180,3649005
1756894097.669881,2.4778153896331787,128,1354170,768615,3649037
1756894097.6728816,2.480815887451172,128,1303830,772205,3649069
1756894097.6728816,2.480815887451172,128,1172010,754250,3649101
1756894097.6738815,2.481815814971924,128,927910,726990,3649133
1756894097.6738815,2.481815814971924,128,723230,728815,3649165
1756894097.6738815,2.481815814971924,128,486395,727455,3649197
1756894097.6738815,2.481815814971924,128,190540,732000,3649229
1756894097.674882,2.482816219329834,128,14455,737070,3649261
1756894097.6758835,2.4838178157806396,128,296700,759665,3649293
1756894097.6758835,2.4838178157806396,128,482670,765430,3649325
1756894097.6758835,2.4838178157806396,128,597680,771650,3649357
1756894097.6758835,2.4838178157806396,128,745575,779935,3649389
1756894097.6758835,2.4838178157806396,128,995185,803325,3649421
1756894097.677074,2.4850082397460938,128,1093540,773650,3649453
1756894097.677074,2.4850082397460938,128,1150155,768835,3649485
1756894097.677074,2.4850082397460938,128,1225435,769625,3649517
1756894097.677074,2.4850082397460938,128,1299070,771200,3649549
1756894097.6786127,2.4865469932556152,128,1357385,770325,3649581
1756894097.6786127,2.4865469932556152,128,1393575,771825,3649613
1756894097.6786127,2.4865469932556152,128,1391910,772345,3649645
1756894097.6786127,2.4865469932556152,128,1373975,772655,3649677
1756894097.6786127,2.4865469932556152,128,1332770,770115,3649709
1756894097.6786127,2.4865469932556152,128,1251285,769710,3649741
1756894097.6786127,2.4865469932556152,128,1051605,736860,3649773
1756894097.6796184,2.4875526428222656,128,803370,725095,3649805
1756894097.6796184,2.4875526428222656,128,613040,723445,3649837
1756894097.6796184,2.4875526428222656,128,309790,731500,3649869
1756894097.6796184,2.4875526428222656,128,63375,734155,3649901
1756894097.6796184,2.4875526428222656,128,42875,746775,3649933
1756894097.6796184,2.4875526428222656,128,298405,761175,3649965
1756894097.6796184,2.4875526428222656,128,539370,766340,3649997
1756894097.6871235,2.4950578212738037,128,679745,779265,3650029
1756894097.6881237,2.4960579872131348,128,855270,793565,3650061
1756894097.6891239,2.497058153152466,128,1085970,792730,3650093
1756894097.6901238,2.4980580806732178,128,1114005,767810,3650125
1756894097.6911235,2.4990577697753906,128,1186620,768550,3650157
1756894097.6941247,2.502058982849121,128,1266090,767580,3650189
1756894097.6941247,2.502058982849121,128,1331380,770455,3650221
1756894097.6941247,2.502058982849121,128,1378765,770125,3650253
1756894097.697124,2.5050582885742188,128,1397120,771920,3650285
1756894097.6981242,2.50605845451355,128,1383660,771135,3650317
1756894097.6991234,2.5070576667785645,128,1352165,770775,3650349
1756894097.7001238,2.5080580711364746,128,1298300,770935,3650381
1756894097.7001238,2.5080580711364746,128,1163440,752375,3650413
1756894097.7011242,2.5090584754943848,128,917950,726280,3650445
1756894097.7021234,2.5100576877593994,128,715290,728165,3650477
1756894097.7051234,2.5130577087402344,128,469095,727000,3650509
1756894097.7051234,2.5130577087402344,128,172755,732575,3650541
1756894097.7051234,2.5130577087402344,128,9445,738750,3650573
1756894097.7061238,2.5140581130981445,128,55355,746430,3650605
1756894097.7101252,2.518059492111206,128,487785,765475,3650637
1756894097.7121243,2.5200586318969727,128,603120,775395,3650669
1756894097.7121243,2.5200586318969727,128,750350,781430,3650701
1756894097.7131243,2.5210585594177246,128,1001005,800865,3650733
1756894097.7131243,2.5210585594177246,128,1091720,773000,3650765
1756894097.7161248,2.5240590572357178,128,1150870,768460,3650797
1756894097.7161248,2.5240590572357178,128,1226480,769235,3650829
1756894097.7161248,2.5240590572357178,128,1298930,771355,3650861
1756894097.7171245,2.5250587463378906,128,1357895,771490,3650893
1756894097.7171245,2.5250587463378906,128,1392920,770760,3650925
1756894097.7171245,2.5250587463378906,128,1389280,771125,3650957
1756894097.7181234,2.526057720184326,128,1371570,773250,3650989
1756894097.7181234,2.526057720184326,128,1329070,769100,3651021
1756894097.7181234,2.526057720184326,128,1244940,768525,3651053
1756894097.7181234,2.526057720184326,128,1040305,736360,3651085
1756894097.7191231,2.527057409286499,128,795260,725860,3651117
1756894097.7191231,2.527057409286499,128,606545,721535,3651149
1756894097.7191231,2.527057409286499,128,309305,731810,3651181
1756894097.7201233,2.52805757522583,128,63965,734615,3651213
1756894097.7205465,2.5284807682037354,128,11855,739720,3651245
1756894097.7205465,2.5284807682037354,128,324810,761065,3651277
1756894097.7205465,2.5284807682037354,128,540890,767280,3651309
1756894097.7205465,2.5284807682037354,128,683930,780780,3651341
1756894097.7205465,2.5284807682037354,128,863640,793670,3651373
1756894097.7221444,2.530078649520874,128,1085220,790125,3651405
1756894097.7221444,2.530078649520874,128,1115620,770840,3651437
1756894097.7221444,2.530078649520874,128,1188040,768850,3651469
1756894097.7221444,2.530078649520874,128,1268015,769035,3651501
1756894097.7221444,2.530078649520874,128,1332540,771985,3651533
1756894097.7221444,2.530078649520874,128,1379190,771110,3651565
1756894097.7221444,2.530078649520874,128,1395920,773750,3651597
1756894097.7221444,2.530078649520874,128,1381955,771175,3651629
1756894097.7221444,2.530078649520874,128,1350065,771440,3651661
1756894097.7231483,2.5310826301574707,128,1294670,771265,3651693
1756894097.7231483,2.5310826301574707,128,1154200,751355,3651725
1756894097.7231483,2.5310826301574707,128,905855,726740,3651757
1756894097.7231483,2.5310826301574707,128,705995,725805,3651789
1756894097.7231483,2.5310826301574707,128,451245,726785,3651821
1756894097.7231483,2.5310826301574707,128,158835,732365,3651853
1756894097.7231483,2.5310826301574707,128,50020,734465,3651885
1756894097.7231483,2.5310826301574707,128,62335,747275,3651917
1756894097.7231483,2.5310826301574707,128,491785,766640,3651949
1756894097.7231483,2.5310826301574707,128,607225,773590,3651981
1756894097.7231483,2.5310826301574707,128,754360,779910,3652013
1756894097.7231483,2.5310826301574707,128,1012055,800550,3652045
1756894097.7231483,2.5310826301574707,128,1092040,770400,3652077
1756894097.7241478,2.5320820808410645,128,1153905,769620,3652109
1756894097.7241478,2.5320820808410645,128,1229520,769510,3652141
1756894097.7241478,2.5320820808410645,128,1300805,771075,3652173
1756894097.7241478,2.5320820808410645,128,1358395,770630,3652205
1756894097.7241478,2.5320820808410645,128,1393180,770730,3652237
1756894097.7241478,2.5320820808410645,128,1388065,772070,3652269
1756894097.7241478,2.5320820808410645,128,1368995,771840,3652301
1756894097.7241478,2.5320820808410645,128,1326025,770600,3652333
1756894097.7241478,2.5320820808410645,128,1236785,766375,3652365
1756894097.7241478,2.5320820808410645,128,1027720,734810,3652397
1756894097.7241478,2.5320820808410645,128,783185,725070,3652429
1756894097.7241478,2.5320820808410645,128,589770,719890,3652461
1756894097.7241478,2.5320820808410645,128,441820,725110,3652493
1756894097.7241478,2.5320820808410645,128,155685,733005,3652525
1756894097.7241478,2.5320820808410645,128,4635,738485,3652557
1756894097.725148,2.5330822467803955,128,344860,762825,3652589
1756894097.725148,2.5330822467803955,128,543735,768120,3652621
1756894097.725148,2.5330822467803955,128,689065,778440,3652653
1756894097.725148,2.5330822467803955,128,880055,796240,3652685
1756894097.725148,2.5330822467803955,128,1084115,787145,3652717
1756894097.725148,2.5330822467803955,128,1116550,769645,3652749
1756894097.725148,2.5330822467803955,128,1189090,771015,3652781
1756894097.725148,2.5330822467803955,128,1268545,769730,3652813
1756894097.725148,2.5330822467803955,128,1331770,769890,3652845
1756894097.725148,2.5330822467803955,128,1376840,769765,3652877
1756894097.725148,2.5330822467803955,128,1392710,773640,3652909
1756894097.725148,2.5330822467803955,128,1377995,771275,3652941
1756894097.725148,2.5330822467803955,128,1344085,771420,3652973
1756894097.725148,2.5330822467803955,128,1287190,771940,3653005
1756894097.725148,2.5330822467803955,128,1137375,747010,3653037
1756894097.7261496,2.534083843231201,128,889675,724635,3653069
1756894097.7261496,2.534083843231201,128,694435,728475,3653101
1756894097.7261496,2.534083843231201,128,584170,720585,3653133
1756894097.7261496,2.534083843231201,128,290320,731945,3653165
1756894097.7261496,2.534083843231201,128,55885,734685,3653197
1756894097.7261496,2.534083843231201,128,94260,747970,3653229
1756894097.7261496,2.534083843231201,128,496175,764805,3653261
1756894097.7261496,2.534083843231201,128,610770,775900,3653293
1756894097.7261496,2.534083843231201,128,757935,781155,3653325
1756894097.7261496,2.534083843231201,128,1018415,801625,3653357
1756894097.7261496,2.534083843231201,128,1089560,770260,3653389
1756894097.7261496,2.534083843231201,128,1153635,767800,3653421
1756894097.7261496,2.534083843231201,128,1230110,767360,3653453
1756894097.7261496,2.534083843231201,128,1301530,769755,3653485
1756894097.7261496,2.534083843231201,128,1358255,770425,3653517
1756894097.7271483,2.5350825786590576,128,1391265,771995,3653549
1756894097.7271483,2.5350825786590576,128,1384580,773060,3653581
1756894097.7271483,2.5350825786590576,128,1363770,770555,3653613
1756894097.7271483,2.5350825786590576,128,1320530,771225,3653645
1756894097.7271483,2.5350825786590576,128,1229165,766210,3653677
1756894097.7271483,2.5350825786590576,128,1013415,732260,3653709
1756894097.7271483,2.5350825786590576,128,772535,726035,3653741
1756894097.7271483,2.5350825786590576,128,690300,727465,3653773
1756894097.7271483,2.5350825786590576,128,419250,727485,3653805
1756894097.7271483,2.5350825786590576,128,138570,733580,3653837
1756894097.7271483,2.5350825786590576,128,-7425,739300,3653869
1756894097.7271483,2.5350825786590576,128,355740,762900,3653901
1756894097.7271483,2.5350825786590576,128,545760,767735,3653933
1756894097.7271483,2.5350825786590576,128,694460,782680,3653965
1756894097.7271483,2.5350825786590576,128,887800,795905,3653997
1756894097.7281482,2.5360825061798096,128,1086105,786850,3654029
1756894097.7281482,2.5360825061798096,128,1118015,769965,3654061
1756894097.7281482,2.5360825061798096,128,1190435,770445,3654093
1756894097.7281482,2.5360825061798096,128,1269795,770390,3654125
1756894097.7281482,2.5360825061798096,128,1332640,770280,3654157
1756894097.7281482,2.5360825061798096,128,1377485,770985,3654189
1756894097.7281482,2.5360825061798096,128,1391200,773840,3654221
1756894097.7281482,2.5360825061798096,128,1376340,771600,3654253
1756894097.7281482,2.5360825061798096,128,1341495,771220,3654285
1756894097.7281482,2.5360825061798096,128,1282535,772345,3654317
1756894097.7281482,2.5360825061798096,128,1128155,746955,3654349
1756894097.7281482,2.5360825061798096,128,879515,725730,3654381
1756894097.7281482,2.5360825061798096,128,770490,726765,3654413
1756894097.7281482,2.5360825061798096,128,575640,723385,3654445
1756894097.7321477,2.5400819778442383,128,266840,732290,3654477
1756894097.7361476,2.544081926345825,128,35605,734990,3654509
1756894097.7371485,2.5450828075408936,128,101595,750295,3654541
1756894097.7371485,2.5450828075408936,128,500040,765730,3654573
1756894097.7381487,2.5460829734802246,128,616990,775940,3654605
1756894097.7391484,2.5470826625823975,128,764150,782545,3654637
1756894097.7391484,2.5470826625823975,128,1028655,803470,3654669
1756894097.740148,2.5480823516845703,128,1092435,770375,3654701
1756894097.740148,2.5480823516845703,128,1157655,769095,3654733
1756894097.7411473,2.549081563949585,128,1235040,770690,3654765
1756894097.7421503,2.5500845909118652,128,1304805,770930,3654797
1756894097.74315,2.551084280014038,128,1359545,770025,3654829
1756894097.74315,2.551084280014038,128,1391925,773125,3654861
1756894097.745149,2.5530831813812256,128,1384735,772310,3654893
1756894097.745149,2.5530831813812256,128,1363765,771805,3654925
1756894097.745149,2.5530831813812256,128,1320160,772360,3654957
1756894097.7486567,2.556591033935547,128,1223845,764585,3654989
1756894097.7486567,2.556591033935547,128,1006310,733590,3655021
1756894097.749657,2.557591199874878,128,875250,724145,3655053
1756894097.7506557,2.5585899353027344,128,683245,726940,3655085
1756894097.7506557,2.5585899353027344,128,425135,725290,3655117
1756894097.7506557,2.5585899353027344,128,137050,733105,3655149
1756894097.7516556,2.5595898628234863,128,1925,739380,3655181
1756894097.7516556,2.5595898628234863,128,380595,763150,3655213
1756894097.7526567,2.560590982437134,128,551445,767115,3655245
1756894097.7526567,2.560590982437134,128,701800,782465,3655277
1756894097.753656,2.5615901947021484,128,901185,798695,3655309
1756894097.753656,2.5615901947021484,128,1087015,785940,3655341
1756894097.754656,2.5625903606414795,128,1120840,770220,3655373
1756894097.7576559,2.5655901432037354,128,1193275,769635,3655405
1756894097.7576559,2.5655901432037354,128,1272610,770505,3655437
1756894097.7576559,2.5655901432037354,128,1335250,772430,3655469
1756894097.7576559,2.5655901432037354,128,1378425,770870,3655501
1756894097.7586565,2.5665907859802246,128,1391165,773240,3655533
1756894097.7646563,2.5725905895233154,128,1376505,771495,3655565
1756894097.7646563,2.5725905895233154,128,1340955,771765,3655597
1756894097.7646563,2.5725905895233154,128,1280680,772255,3655629
1756894097.7646563,2.5725905895233154,128,1122190,745300,3655661
1756894097.7656562,2.5735905170440674,128,1001740,731480,3655693
1756894097.7656562,2.5735905170440674,128,765945,727810,3655725
1756894097.7656562,2.5735905170440674,128,566800,721835,3655757
1756894097.7656562,2.5735905170440674,128,259755,733280,3655789
1756894097.7686558,2.576590061187744,128,31945,735375,3655821
1756894097.7686558,2.576590061187744,128,112855,750890,3655853
1756894097.7686558,2.576590061187744,128,505110,765580,3655885
1756894097.7696557,2.577589988708496,128,623305,776040,3655917
1756894097.7696557,2.577589988708496,128,773800,782870,3655949
1756894097.7696557,2.577589988708496,128,1037245,800585,3655981
1756894097.7696557,2.577589988708496,128,1094815,771195,3656013
1756894097.7696557,2.577589988708496,128,1162125,770630,3656045
1756894097.7696557,2.577589988708496,128,1238735,768660,3656077
1756894097.770656,2.5785903930664062,128,1308215,770720,3656109
1756894097.770656,2.5785903930664062,128,1362845,770225,3656141
1756894097.7716565,2.5795907974243164,128,1394870,773780,3656173
1756894097.7716565,2.5795907974243164,128,1385610,770925,3656205
1756894097.7716565,2.5795907974243164,128,1364625,773165,3656237
1756894097.7716565,2.5795907974243164,128,1320160,772200,3656269
1756894097.7716565,2.5795907974243164,128,1220390,763185,3656301
1756894097.7716565,2.5795907974243164,128,1120130,745620,3656333
1756894097.7726562,2.5805904865264893,128,870325,724345,3656365
1756894097.7726562,2.5805904865264893,128,680460,728175,3656397
1756894097.7726562,2.5805904865264893,128,393890,728750,3656429
1756894097.7726562,2.5805904865264893,128,102900,733510,3656461
1756894097.7726562,2.5805904865264893,128,-15355,739655,3656493
1756894097.773656,2.581590175628662,128,382325,766770,3656525
1756894097.7741015,2.582035779953003,128,559250,769350,3656557
1756894097.7741015,2.582035779953003,128,709205,780275,3656589
1756894097.7741015,2.582035779953003,128,914695,800550,3656621
1756894097.7741015,2.582035779953003,128,1091890,781895,3656653
1756894097.7741015,2.582035779953003,128,1128205,768835,3656685
1756894097.7841249,2.5920591354370117,128,1201200,767615,3656717
1756894097.7841249,2.5920591354370117,128,1279995,769680,3656749
1756894097.7841249,2.5920591354370117,128,1341705,769940,3656781
1756894097.7841249,2.5920591354370117,128,1384745,770205,3656813
1756894097.7841249,2.5920591354370117,128,1394050,773235,3656845
1756894097.7841249,2.5920591354370117,128,1380265,772855,3656877
1756894097.7841249,2.5920591354370117,128,1343285,770790,3656909
1756894097.7841249,2.5920591354370117,128,1280055,770135,3656941
1756894097.789629,2.5975632667541504,128,1218530,763885,3656973
1756894097.789629,2.5975632667541504,128,995680,732345,3657005
1756894097.789629,2.5975632667541504,128,762980,727465,3657037
1756894097.789629,2.5975632667541504,128,544270,721350,3657069
1756894097.789629,2.5975632667541504,128,223070,731195,3657101
1756894097.789629,2.5975632667541504,128,3200,735900,3657133
1756894097.789629,2.5975632667541504,128,107225,751660,3657165
1756894097.789629,2.5975632667541504,128,511125,764135,3657197
1756894097.789629,2.5975632667541504,128,635585,777780,3657229
1756894097.789629,2.5975632667541504,128,786370,783125,3657261
1756894097.789629,2.5975632667541504,128,1049210,801095,3657293
1756894097.789629,2.5975632667541504,128,1099735,769395,3657325
1756894097.789629,2.5975632667541504,128,1167905,769860,3657357
1756894097.789629,2.5975632667541504,128,1245955,769235,3657389
1756894097.789629,2.5975632667541504,128,1314950,770995,3657421
1756894097.789629,2.5975632667541504,128,1368685,770035,3657453
1756894097.789629,2.5975632667541504,128,1398820,772510,3657485
1756894097.8052585,2.6131927967071533,128,1388390,770215,3657517
1756894097.8052585,2.6131927967071533,128,1365180,771300,3657549
1756894097.8052585,2.6131927967071533,128,1320010,770655,3657581
1756894097.8052585,2.6131927967071533,128,1279550,772335,3657613
1756894097.8052585,2.6131927967071533,128,1111140,743285,3657645
1756894097.8052585,2.6131927967071533,128,860195,724260,3657677
1756894097.8052585,2.6131927967071533,128,672750,725740,3657709
1756894097.8052585,2.6131927967071533,128,360800,728185,3657741
1756894097.8052585,2.6131927967071533,128,80580,733315,3657773
1756894097.8052585,2.6131927967071533,128,-28120,739855,3657805
1756894097.8052585,2.6131927967071533,128,397370,766085,3657837
1756894097.8052585,2.6131927967071533,128,565645,768640,3657869
1756894097.8052585,2.6131927967071533,128,716490,779965,3657901
1756894097.8052585,2.6131927967071533,128,930005,801135,3657933
1756894097.8052585,2.6131927967071533,128,1094755,781220,3657965
1756894097.8052585,2.6131927967071533,128,1133140,768045,3657997
1756894097.8052585,2.6131927967071533,128,1206535,770655,3658029
1756894097.8052585,2.6131927967071533,128,1282920,769910,3658061
1756894097.8052585,2.6131927967071533,128,1344085,770200,3658093
1756894097.8052585,2.6131927967071533,128,1385235,769990,3658125
1756894097.8052585,2.6131927967071533,128,1393975,771770,3658157
1756894097.8052585,2.6131927967071533,128,1379760,771700,3658189
1756894097.8052585,2.6131927967071533,128,1341600,769220,3658221
1756894097.8052585,2.6131927967071533,128,1318550,770140,3658253
1756894097.8052585,2.6131927967071533,128,1211745,761645,3658285
1756894097.8052585,2.6131927967071533,128,984685,730245,3658317
1756894097.8052585,2.6131927967071533,128,755665,727220,3658349
1756894097.8052585,2.6131927967071533,128,532750,721850,3658381
1756894097.8052585,2.6131927967071533,128,211940,730630,3658413
1756894097.8052585,2.6131927967071533,128,-900,736290,3658445
1756894097.8052585,2.6131927967071533,128,125325,753475,3658477
1756894097.8177054,2.6256396770477295,128,515730,765760,3658509
1756894097.8177054,2.6256396770477295,128,640180,775720,3658541
1756894097.8177054,2.6256396770477295,128,794700,784390,3658573
1756894097.8177054,2.6256396770477295,128,1054070,798550,3658605
1756894097.818353,2.6262872219085693,128,1099505,768960,3658637
1756894097.818353,2.6262872219085693,128,1168810,770085,3658669
1756894097.8187354,2.6266696453094482,128,1246580,769215,3658701
1756894097.8187354,2.6266696453094482,128,1315320,771285,3658733
1756894097.8187354,2.6266696453094482,128,1367155,769595,3658765
1756894097.8187354,2.6266696453094482,128,1396805,773780,3658797
1756894097.8187354,2.6266696453094482,128,1385580,771245,3658829
1756894097.8197398,2.627674102783203,128,1360715,771620,3658861
1756894097.8277385,2.6356728076934814,128,1339045,769450,3658893
1756894097.8277385,2.6356728076934814,128,1272335,770860,3658925
1756894097.8287392,2.6366734504699707,128,1101605,741545,3658957
1756894097.8287392,2.6366734504699707,128,850655,726185,3658989
1756894097.8287392,2.6366734504699707,128,661705,725120,3659021
1756894097.8297396,2.637673854827881,128,352340,727710,3659053
1756894097.8297396,2.637673854827881,128,84930,733595,3659085
1756894097.8307385,2.6386728286743164,128,-15210,741460,3659117
1756894097.8307385,2.6386728286743164,128,421225,765920,3659149
1756894097.8317387,2.6396729946136475,128,568095,770630,3659181
1756894097.8347397,2.642673969268799,128,718445,780130,3659213
1756894097.8347397,2.642673969268799,128,938490,800885,3659245
1756894097.8347397,2.642673969268799,128,1091880,781300,3659277
1756894097.8347397,2.642673969268799,128,1132595,767575,3659309
1756894097.8377385,2.6456727981567383,128,1206870,771120,3659341
1756894097.8377385,2.6456727981567383,128,1283405,769245,3659373
1756894097.8387387,2.6466729640960693,128,1344210,771920,3659405
1756894097.8387387,2.6466729640960693,128,1383020,769190,3659437
1756894097.8397386,2.6476728916168213,128,1392070,773530,3659469
1756894097.8407385,2.6486728191375732,0,1383020,769190,3659501
