t_abs_unix,t_rel_s,exg_status,exg_ch1_24bit,exg_ch2_24bit,device_timestamp
1756899741.534127,0.0,128,-161970,-3865,4074861
1756899741.534127,0.0,128,-161975,-3580,4074893
1756899741.535125,0.0009980201721191406,128,-162160,-3615,4074925
1756899741.5352356,0.0011086463928222656,128,-162565,-3920,4074957
1756899741.5384412,0.0043141841888427734,128,-162485,-4355,4074989
1756899741.5384412,0.0043141841888427734,128,-162685,-4585,4075021
1756899741.5394413,0.005314350128173828,128,-162395,-5815,4075053
1756899741.5394413,0.005314350128173828,128,-162195,-5585,4075085
1756899741.5394413,0.005314350128173828,128,-162035,-4725,4075117
1756899741.5394413,0.005314350128173828,128,-162190,-3430,4075149
1756899741.5454574,0.011330366134643555,128,-162175,-3210,4075181
1756899741.5454574,0.011330366134643555,128,-162235,-3250,4075213
1756899741.5464644,0.012337446212768555,128,-162240,-3210,4075245
1756899741.5464644,0.012337446212768555,128,-162215,-3600,4075277
1756899741.5464644,0.012337446212768555,128,-162545,-3795,4075309
1756899741.5464644,0.012337446212768555,128,-162595,-2560,4075341
1756899741.5494633,0.015336275100708008,128,-162880,-6035,4075373
1756899741.5494633,0.015336275100708008,128,-163385,-2965,4075405
1756899741.5494633,0.015336275100708008,128,-163630,1505,4075437
1756899741.5494633,0.015336275100708008,128,-163385,460,4075469
1756899741.5494633,0.015336275100708008,128,-163295,1685,4075501
1756899741.5504653,0.016338348388671875,128,-163150,4870,4075533
1756899741.556983,0.02285599708557129,128,-163130,-4100,4075565
1756899741.556983,0.02285599708557129,128,-163140,-10425,4075597
1756899741.5579822,0.023855209350585938,128,-162940,-10985,4075629
1756899741.5579822,0.023855209350585938,128,-163045,-6540,4075661
1756899741.5579822,0.023855209350585938,128,-162830,-4210,4075693
1756899741.5807166,0.04658961296081543,128,-162595,-165,4075725
1756899741.5807166,0.04658961296081543,128,-162710,4055,4075757
1756899741.5807166,0.04658961296081543,128,-162830,-6455,4075789
1756899741.5807166,0.04658961296081543,128,-162905,-7650,4075821
1756899741.5807166,0.04658961296081543,128,-162840,-7680,4075853
1756899741.581717,0.047590017318725586,128,-162955,-5610,4075885
1756899741.581717,0.047590017318725586,128,-163000,-3725,4075917
1756899741.609285,0.07515811920166016,128,-163220,-3275,4075949
1756899741.609285,0.07515811920166016,128,-163010,-3600,4075981
1756899741.609285,0.07515811920166016,128,-162890,-3845,4076013
1756899741.6102865,0.07615947723388672,128,-163140,-4525,4076045
1756899741.6102865,0.07615947723388672,128,-163100,-5490,4076077
1756899741.7142527,0.18012571334838867,128,-163225,-5365,4076109
1756899741.7142527,0.18012571334838867,128,-163205,-4930,4076141
1756899741.7142527,0.18012571334838867,128,-163365,-4530,4076173
1756899741.7142527,0.18012571334838867,128,-163415,-5550,4076205
1756899741.7172563,0.18312931060791016,128,-163600,-8665,4076237
1756899741.7172563,0.18312931060791016,128,-163870,-8505,4076269
1756899741.7172563,0.18312931060791016,128,-163780,-6375,4076301
1756899741.7172563,0.18312931060791016,128,-163570,-5395,4076333
1756899741.7172563,0.18312931060791016,128,-164010,-4080,4076365
1756899741.7172563,0.18312931060791016,128,-164070,-5150,4076397
1756899741.7172563,0.18312931060791016,128,-163980,-5250,4076429
1756899741.7172563,0.18312931060791016,128,-163715,-4325,4076461
1756899741.7172563,0.18312931060791016,128,-163590,-2730,4076493
1756899741.7172563,0.18312931060791016,128,-163650,-505,4076525
1756899741.7172563,0.18312931060791016,128,-163370,-2660,4076557
1756899741.7172563,0.18312931060791016,128,-163160,-4360,4076589
1756899741.7172563,0.18312931060791016,128,-163315,-4080,4076621
1756899741.7172563,0.18312931060791016,128,-163370,-4295,4076653
1756899741.7172563,0.18312931060791016,128,-163390,-4650,4076685
1756899741.7172563,0.18312931060791016,128,-163545,-4720,4076717
1756899741.7172563,0.18312931060791016,128,-163615,-4955,4076749
1756899741.7172563,0.18312931060791016,128,-163820,-4450,4076781
1756899741.7172563,0.18312931060791016,128,-163780,-4000,4076813
1756899741.7172563,0.18312931060791016,128,-163820,-3820,4076845
1756899741.7172563,0.18312931060791016,128,-163765,-3055,4076877
1756899741.7172563,0.18312931060791016,128,-163650,-2885,4076909
1756899741.7172563,0.18312931060791016,128,-163640,-2480,4076941
1756899741.7172563,0.18312931060791016,128,-163795,-2970,4076973
1756899741.7172563,0.18312931060791016,128,-163725,-4895,4077005
1756899741.7172563,0.18312931060791016,128,-163865,-4030,4077037
1756899741.7172563,0.18312931060791016,128,-163865,-1670,4077069
1756899741.7172563,0.18312931060791016,128,-163855,-1325,4077101
1756899741.7172563,0.18312931060791016,128,-164115,-1085,4077133
1756899741.7172563,0.18312931060791016,128,-164135,-3240,4077165
1756899741.7172563,0.18312931060791016,128,-163945,-360,4077197
1756899741.7172563,0.18312931060791016,128,-164075,-80,4077229
1756899741.7228012,0.1886742115020752,128,-164290,-945,4077261
1756899741.7228012,0.1886742115020752,128,-164800,-2175,4077293
1756899741.72312,0.18899297714233398,128,-164670,-3125,4077325
1756899741.72312,0.18899297714233398,128,-164435,-6875,4077357
1756899741.72312,0.18899297714233398,128,-164365,-11000,4077389
1756899741.72312,0.18899297714233398,128,-164305,-14710,4077421
1756899741.72312,0.18899297714233398,128,-164385,-13755,4077453
1756899741.72312,0.18899297714233398,128,-164015,-9855,4077485
1756899741.72312,0.18899297714233398,128,-163860,-8340,4077517
1756899741.72312,0.18899297714233398,128,-163660,-5275,4077549
1756899741.7241242,0.18999719619750977,128,-163465,-5380,4077581
1756899741.7241242,0.18999719619750977,128,-163490,-4340,4077613
1756899741.7241242,0.18999719619750977,128,-163575,-4395,4077645
1756899741.7241242,0.18999719619750977,128,-163630,-5675,4077677
1756899741.7241242,0.18999719619750977,128,-163635,-6300,4077709
1756899741.7241242,0.18999719619750977,128,-163600,-6140,4077741
1756899741.7241242,0.18999719619750977,128,-163640,-5605,4077773
1756899741.7241242,0.18999719619750977,128,-163220,-4045,4077805
1756899741.7241242,0.18999719619750977,128,-163250,-4090,4077837
1756899741.7241242,0.18999719619750977,128,-163235,-4590,4077869
1756899741.7241242,0.18999719619750977,128,-163320,-4265,4077901
1756899741.7241242,0.18999719619750977,128,-163310,-5265,4077933
1756899741.7251282,0.19100117683410645,128,-163405,-5715,4077965
1756899741.7251282,0.19100117683410645,128,-163300,-6020,4077997
1756899741.7251282,0.19100117683410645,128,-163100,-5835,4078029
1756899741.7251282,0.19100117683410645,128,-163260,-5870,4078061
1756899741.7251282,0.19100117683410645,128,-163330,-6205,4078093
1756899741.7251282,0.19100117683410645,128,-163360,-6370,4078125
1756899741.7251282,0.19100117683410645,128,-163375,-6470,4078157
1756899741.7251282,0.19100117683410645,128,-163370,-6715,4078189
1756899741.7251282,0.19100117683410645,128,-163415,-6715,4078221
1756899741.7251282,0.19100117683410645,128,-163310,-6640,4078253
1756899741.7251282,0.19100117683410645,128,-163265,-6330,4078285
1756899741.7251282,0.19100117683410645,128,-163200,-6100,4078317
1756899741.7251282,0.19100117683410645,128,-163110,-5785,4078349
1756899741.7261279,0.1920008659362793,128,-163260,-5045,4078381
1756899741.7261279,0.1920008659362793,128,-163265,-4165,4078413
1756899741.7261279,0.1920008659362793,128,-163035,-2305,4078445
1756899741.7261279,0.1920008659362793,128,-162865,-765,4078477
1756899741.7261279,0.1920008659362793,128,-162930,-905,4078509
1756899741.7261279,0.1920008659362793,128,-162830,845,4078541
1756899741.7261279,0.1920008659362793,128,-163045,1255,4078573
1756899741.7261279,0.1920008659362793,128,-163025,-4650,4078605
1756899741.7261279,0.1920008659362793,128,-163080,-5000,4078637
1756899741.7261279,0.1920008659362793,128,-163280,-3740,4078669
1756899741.7261279,0.1920008659362793,128,-163370,-8915,4078701
1756899741.7261279,0.1920008659362793,128,-163255,-9855,4078733
1756899741.7261279,0.1920008659362793,128,-163480,-10170,4078765
1756899741.727128,0.19300103187561035,128,-163290,-9645,4078797
1756899741.727128,0.19300103187561035,128,-163370,-8145,4078829
1756899741.727128,0.19300103187561035,128,-163355,-5120,4078861
1756899741.727128,0.19300103187561035,128,-163615,-5730,4078893
1756899741.727128,0.19300103187561035,128,-163635,-6460,4078925
1756899741.727128,0.19300103187561035,128,-163425,-5895,4078957
1756899741.727128,0.19300103187561035,128,-163265,-5450,4078989
1756899741.727128,0.19300103187561035,128,-163350,-4965,4079021
1756899741.727128,0.19300103187561035,128,-163430,-5265,4079053
1756899741.727128,0.19300103187561035,128,-163420,-5315,4079085
1756899741.727128,0.19300103187561035,128,-163795,-5300,4079117
1756899741.727128,0.19300103187561035,128,-163725,-4640,4079149
1756899741.728128,0.1940009593963623,128,-163875,-3590,4079181
1756899741.728128,0.1940009593963623,128,-163835,-2170,4079213
1756899741.728128,0.1940009593963623,128,-163975,-1165,4079245
1756899741.728128,0.1940009593963623,128,-164045,-6040,4079277
1756899741.728128,0.1940009593963623,128,-164025,-5255,4079309
1756899741.728128,0.1940009593963623,128,-163800,-3025,4079341
1756899741.728128,0.1940009593963623,128,-163535,-1250,4079373
1756899741.728128,0.1940009593963623,128,-163575,-5025,4079405
1756899741.728128,0.1940009593963623,128,-163590,-10385,4079437
1756899741.728128,0.1940009593963623,128,-163765,-6490,4079469
1756899741.728128,0.1940009593963623,128,-163665,-5590,4079501
1756899741.728128,0.1940009593963623,128,-163470,-4975,4079533
1756899741.728128,0.1940009593963623,128,-163490,-5960,4079565
1756899741.7291293,0.19500231742858887,128,-163545,-5620,4079597
1756899741.7291293,0.19500231742858887,128,-163415,-4360,4079629
1756899741.7291293,0.19500231742858887,128,-163705,-1795,4079661
1756899741.7291293,0.19500231742858887,128,-163950,-140,4079693
1756899741.7291293,0.19500231742858887,128,-163965,845,4079725
1756899741.7291293,0.19500231742858887,128,-164155,1465,4079757
1756899741.7291293,0.19500231742858887,128,-164045,2240,4079789
1756899741.7291293,0.19500231742858887,128,-163910,3695,4079821
1756899741.7291293,0.19500231742858887,128,-163975,-2640,4079853
1756899741.7291293,0.19500231742858887,128,-164330,-13370,4079885
1756899741.7291293,0.19500231742858887,128,-164325,-13210,4079917
1756899741.7291293,0.19500231742858887,128,-164460,-11220,4079949
1756899741.7291293,0.19500231742858887,128,-163955,-8955,4079981
1756899741.7301278,0.1960008144378662,128,-163400,-5275,4080013
1756899741.7301278,0.1960008144378662,128,-163460,-7820,4080045
1756899741.7301278,0.1960008144378662,128,-163685,-9975,4080077
1756899741.7301278,0.1960008144378662,128,-163985,-5880,4080109
1756899741.7301278,0.1960008144378662,128,-163835,-5930,4080141
1756899741.7301278,0.1960008144378662,128,-163975,-4405,4080173
1756899741.7301278,0.1960008144378662,128,-164020,-3870,4080205
1756899741.7301278,0.1960008144378662,128,-163970,-3970,4080237
1756899741.7301278,0.1960008144378662,128,-163945,-4200,4080269
1756899741.7301278,0.1960008144378662,128,-163995,-4475,4080301
1756899741.7301278,0.1960008144378662,128,-164115,-8280,4080333
1756899741.7301278,0.1960008144378662,128,-164175,-9830,4080365
1756899741.7311277,0.19700074195861816,128,-163990,-11000,4080397
1756899741.7311277,0.19700074195861816,128,-163995,-13315,4080429
1756899741.7311277,0.19700074195861816,128,-164205,-12885,4080461
1756899741.7311277,0.19700074195861816,128,-164080,-12645,4080493
1756899741.7311277,0.19700074195861816,128,-164165,-6265,4080525
1756899741.7311277,0.19700074195861816,128,-163855,-4940,4080557
1756899741.7311277,0.19700074195861816,128,-163645,-6610,4080589
1756899741.7311277,0.19700074195861816,128,-163060,-5235,4080621
1756899741.7311277,0.19700074195861816,128,-163435,-5205,4080653
1756899741.7311277,0.19700074195861816,128,-163725,-3825,4080685
1756899741.7311277,0.19700074195861816,128,-163750,-2785,4080717
1756899741.7311277,0.19700074195861816,128,-164015,-3965,4080749
1756899741.7311277,0.19700074195861816,128,-164180,-4735,4080781
1756899741.7311277,0.19700074195861816,128,-164005,-4375,4080813
1756899741.7311277,0.19700074195861816,128,-164095,-3530,4080845
1756899741.7311277,0.19700074195861816,128,-164075,-4475,4080877
1756899741.7311277,0.19700074195861816,128,-164180,-6120,4080909
1756899741.7311277,0.19700074195861816,128,-164195,-6615,4080941
1756899741.732631,0.19850397109985352,128,-164525,-6695,4080973
1756899741.732631,0.19850397109985352,128,-164565,-1460,4081005
1756899741.732631,0.19850397109985352,128,-164300,-4265,4081037
1756899741.732631,0.19850397109985352,128,-164065,105,4081069
1756899741.732631,0.19850397109985352,128,-164005,-3055,4081101
1756899741.8097262,0.27559924125671387,128,-164030,-7345,4081133
1756899741.810726,0.2765989303588867,128,-164090,-4880,4081165
1756899741.8107903,0.27666330337524414,128,-163830,-2510,4081197
1756899741.8107903,0.27666330337524414,128,-163710,-8655,4081229
1756899741.8107903,0.27666330337524414,128,-163405,-9390,4081261
1756899741.8107903,0.27666330337524414,128,-163790,-6610,4081293
1756899741.8107903,0.27666330337524414,128,-164150,-7500,4081325
1756899741.8107903,0.27666330337524414,128,-164320,-7150,4081357
1756899741.8107903,0.27666330337524414,128,-164240,-5605,4081389
1756899741.8107903,0.27666330337524414,128,-164175,-4285,4081421
1756899741.8107903,0.27666330337524414,128,-164085,-4325,4081453
1756899741.8107903,0.27666330337524414,128,-164200,-4985,4081485
1756899741.8107903,0.27666330337524414,128,-164285,-5585,4081517
1756899741.8117924,0.277665376663208,128,-164170,-9840,4081549
1756899741.8117924,0.277665376663208,128,-164525,-13280,4081581
1756899741.8117924,0.277665376663208,128,-164325,-6410,4081613
1756899741.8117924,0.277665376663208,128,-163855,-4050,4081645
1756899741.8117924,0.277665376663208,128,-163845,-6245,4081677
1756899741.8117924,0.277665376663208,128,-164170,-6055,4081709
1756899741.8117924,0.277665376663208,128,-164110,-5375,4081741
1756899741.8117924,0.277665376663208,128,-164320,-4995,4081773
1756899741.8117924,0.277665376663208,128,-164245,-1630,4081805
1756899741.8117924,0.277665376663208,128,-164305,-340,4081837
1756899741.8117924,0.277665376663208,128,-164185,-8140,4081869
1756899741.8117924,0.277665376663208,128,-164215,-5465,4081901
1756899741.8117924,0.277665376663208,128,-164050,-5425,4081933
1756899741.8117924,0.277665376663208,128,-163675,-8405,4081965
1756899741.8128462,0.2787191867828369,128,-163655,-3380,4081997
1756899741.8128462,0.2787191867828369,128,-163875,-7930,4082029
1756899741.8128462,0.2787191867828369,128,-163900,-10880,4082061
1756899741.8128462,0.2787191867828369,128,-163925,-8145,4082093
1756899741.8128462,0.2787191867828369,128,-164055,-7090,4082125
1756899741.8128462,0.2787191867828369,128,-164005,-6470,4082157
1756899741.8128462,0.2787191867828369,128,-164005,-6320,4082189
1756899741.8128462,0.2787191867828369,128,-163975,-5855,4082221
1756899741.8128462,0.2787191867828369,128,-164180,-5400,4082253
1756899741.8128462,0.2787191867828369,128,-164145,-5400,4082285
1756899741.8128462,0.2787191867828369,128,-164210,-6290,4082317
1756899741.8128462,0.2787191867828369,128,-163970,-5550,4082349
1756899741.8128462,0.2787191867828369,128,-164100,-5725,4082381
1756899741.8128462,0.2787191867828369,128,-164190,-6175,4082413
1756899741.8138478,0.2797207832336426,128,-164035,-6425,4082445
1756899741.8138478,0.2797207832336426,128,-164105,-6835,4082477
1756899741.8138478,0.2797207832336426,128,-164270,-7445,4082509
1756899741.8138478,0.2797207832336426,128,-164310,-5730,4082541
1756899741.8138478,0.2797207832336426,128,-164290,-4255,4082573
1756899741.8138478,0.2797207832336426,128,-164090,-4185,4082605
1756899741.8138478,0.2797207832336426,128,-164045,-3095,4082637
1756899741.8138478,0.2797207832336426,128,-164180,-5255,4082669
1756899741.8138478,0.2797207832336426,128,-164190,-3395,4082701
1756899741.8138478,0.2797207832336426,128,-164130,-5385,4082733
1756899741.8138478,0.2797207832336426,128,-164280,-6690,4082765
1756899741.8138478,0.2797207832336426,128,-164355,-2885,4082797
1756899741.8148468,0.2807197570800781,128,-164335,-3195,4082829
1756899741.8198538,0.28572678565979004,128,-164480,-6350,4082861
1756899741.8198538,0.28572678565979004,128,-164440,-7020,4082893
1756899741.8198538,0.28572678565979004,128,-164600,-6715,4082925
1756899741.8198538,0.28572678565979004,128,-164540,-7205,4082957
1756899741.8198538,0.28572678565979004,128,-164575,-6725,4082989
1756899741.823374,0.2892470359802246,128,-164600,-6410,4083021
1756899741.823374,0.2892470359802246,128,-164750,-7360,4083053
1756899741.823374,0.2892470359802246,128,-164670,-7700,4083085
1756899741.823374,0.2892470359802246,128,-164625,-7320,4083117
1756899741.823374,0.2892470359802246,128,-164645,-11880,4083149
1756899741.8293965,0.2952694892883301,128,-164685,-8985,4083181
1756899741.8293965,0.2952694892883301,128,-164460,-7200,4083213
1756899741.8293965,0.2952694892883301,128,-164240,-3795,4083245
1756899741.8293965,0.2952694892883301,128,-163605,-6395,4083277
1756899741.8303812,0.29625415802001953,128,-163640,-9260,4083309
1756899741.8303812,0.29625415802001953,128,-163575,-5240,4083341
1756899741.8382363,0.3041093349456787,128,-163865,-3460,4083373
1756899741.8382363,0.3041093349456787,128,-164385,-2820,4083405
1756899741.8382363,0.3041093349456787,128,-164480,-3350,4083437
1756899741.8382363,0.3041093349456787,128,-164390,-4395,4083469
1756899741.8382363,0.3041093349456787,128,-164260,-7565,4083501
1756899741.851254,0.317126989364624,128,-163920,-4130,4083533
1756899741.851254,0.317126989364624,128,-163900,-3405,4083565
1756899741.851254,0.317126989364624,128,-163630,-4915,4083597
1756899741.8527591,0.3186321258544922,128,-163435,-4730,4083629
1756899741.8527591,0.3186321258544922,128,-163435,-7525,4083661
1756899741.8527591,0.3186321258544922,128,-163500,-5345,4083693
1756899741.8557737,0.32164669036865234,128,-163695,-6430,4083725
1756899741.8557737,0.32164669036865234,128,-163835,-6290,4083757
1756899741.8567753,0.322648286819458,128,-163800,-5685,4083789
1756899741.8567753,0.322648286819458,128,-164120,-6040,4083821
1756899741.8567753,0.322648286819458,128,-164210,-5830,4083853
1756899741.8567753,0.322648286819458,128,-164320,-4950,4083885
1756899741.8567753,0.322648286819458,128,-164065,-4115,4083917
1756899741.857773,0.32364606857299805,128,-164550,-4665,4083949
1756899741.857773,0.32364606857299805,128,-164705,-4375,4083981
1756899741.857773,0.32364606857299805,128,-164785,-4645,4084013
1756899741.857773,0.32364606857299805,128,-164485,-8310,4084045
1756899741.8587725,0.3246455192565918,128,-164460,-12245,4084077
1756899741.8619847,0.32785773277282715,128,-164175,-5955,4084109
1756899741.8619847,0.32785773277282715,128,-163985,-11495,4084141
1756899741.8624916,0.32836461067199707,128,-164035,-11625,4084173
1756899741.8624916,0.32836461067199707,128,-163640,-7260,4084205
1756899741.8624916,0.32836461067199707,128,-163580,-7140,4084237
1756899741.8624916,0.32836461067199707,128,-163770,-9000,4084269
1756899741.9549143,0.42078733444213867,128,-163960,-7675,4084301
1756899741.9586177,0.42449069023132324,128,-164055,-5485,4084333
1756899741.9586177,0.42449069023132324,128,-163935,-5080,4084365
1756899741.9586177,0.42449069023132324,128,-164105,-7175,4084397
1756899741.9586177,0.42449069023132324,128,-163955,-4990,4084429
1756899741.9586177,0.42449069023132324,128,-163990,-2615,4084461
1756899741.9586177,0.42449069023132324,128,-163985,-3735,4084493
1756899741.959685,0.42555809020996094,128,-164260,-3740,4084525
1756899741.95975,0.42562294006347656,128,-164470,-9675,4084557
1756899741.95975,0.42562294006347656,128,-164445,-8840,4084589
1756899741.95975,0.42562294006347656,128,-164565,-7215,4084621
1756899741.9603372,0.4262101650238037,128,-164475,-6490,4084653
1756899741.9603372,0.4262101650238037,128,-164510,-5440,4084685
1756899741.9603372,0.4262101650238037,128,-164475,-7000,4084717
1756899741.960861,0.42673397064208984,128,-164475,-14870,4084749
1756899741.960861,0.42673397064208984,128,-164585,-15780,4084781
1756899741.960861,0.42673397064208984,128,-164600,-11680,4084813
1756899741.960861,0.42673397064208984,128,-164360,-7415,4084845
1756899741.960861,0.42673397064208984,128,-164300,-5135,4084877
1756899741.960861,0.42673397064208984,128,-164235,-3635,4084909
1756899741.960861,0.42673397064208984,128,-164370,-6255,4084941
1756899741.960861,0.42673397064208984,128,-164360,-7505,4084973
1756899741.960861,0.42673397064208984,128,-163980,-7230,4085005
1756899741.960861,0.42673397064208984,128,-164065,-5970,4085037
1756899741.960861,0.42673397064208984,128,-164120,-11385,4085069
1756899741.960861,0.42673397064208984,128,-163505,-5090,4085101
1756899741.9623644,0.4282374382019043,128,-163510,-2110,4085133
1756899741.9626298,0.42850279808044434,128,-163700,-4820,4085165
1756899741.9626298,0.42850279808044434,128,-163970,-7870,4085197
1756899741.9626298,0.42850279808044434,128,-164220,-10530,4085229
1756899741.9626298,0.42850279808044434,128,-164290,-8365,4085261
1756899741.9626298,0.42850279808044434,128,-163890,-9020,4085293
1756899741.9626298,0.42850279808044434,128,-163920,-7185,4085325
1756899741.9626298,0.42850279808044434,128,-163910,-10875,4085357
1756899741.964113,0.42998600006103516,128,-163910,-9515,4085389
1756899741.964113,0.42998600006103516,128,-163730,-7230,4085421
1756899741.964113,0.42998600006103516,128,-163870,-7085,4085453
1756899741.9651113,0.4309842586517334,128,-163990,-6890,4085485
1756899741.9651113,0.4309842586517334,128,-164215,-5335,4085517
1756899741.9651113,0.4309842586517334,128,-164155,-4095,4085549
1756899741.9651113,0.4309842586517334,128,-164180,-2065,4085581
1756899741.9651113,0.4309842586517334,128,-164495,-955,4085613
1756899741.9651113,0.4309842586517334,128,-164435,690,4085645
1756899741.9668107,0.43268370628356934,128,-164740,-580,4085677
1756899741.9669125,0.4327855110168457,128,-164895,-2860,4085709
1756899741.9669125,0.4327855110168457,128,-164980,-6530,4085741
1756899741.9669125,0.4327855110168457,128,-164980,-18195,4085773
1756899741.9679163,0.4337892532348633,128,-164625,-10645,4085805
1756899741.9679163,0.4337892532348633,128,-164140,-13010,4085837
1756899741.9679163,0.4337892532348633,128,-164135,-13870,4085869
1756899741.9682136,0.43408656120300293,128,-164295,-8965,4085901
1756899741.9682875,0.4341604709625244,128,-164285,-7355,4085933
1756899741.9682875,0.4341604709625244,128,-163970,-13015,4085965
1756899741.9682875,0.4341604709625244,128,-163735,-11545,4085997
1756899741.9682875,0.4341604709625244,128,-163425,-6075,4086029
1756899741.9692876,0.43516063690185547,128,-163695,-8230,4086061
1756899741.9692876,0.43516063690185547,128,-163615,-6610,4086093
1756899741.9692876,0.43516063690185547,128,-163545,-3690,4086125
1756899741.9692876,0.43516063690185547,128,-163885,-4910,4086157
1756899741.9702873,0.4361603260040283,128,-163870,-6375,4086189
1756899741.9702873,0.4361603260040283,128,-163900,-5940,4086221
1756899741.9702873,0.4361603260040283,128,-164010,-6100,4086253
1756899741.9702873,0.4361603260040283,128,-163835,-6645,4086285
1756899741.9710293,0.4369022846221924,128,-163860,-6975,4086317
1756899741.9710293,0.4369022846221924,128,-164100,-6435,4086349
1756899741.971461,0.4373340606689453,128,-164030,-6090,4086381
1756899741.9724655,0.4383385181427002,128,-163975,-6280,4086413
1756899741.9724655,0.4383385181427002,128,-164035,-6850,4086445
1756899741.9724655,0.4383385181427002,128,-163980,-7110,4086477
1756899741.9724655,0.4383385181427002,128,-164080,-7220,4086509
1756899741.9724655,0.4383385181427002,128,-164110,-7600,4086541
1756899741.9724655,0.4383385181427002,128,-164395,-7830,4086573
1756899741.9724655,0.4383385181427002,128,-164445,-7885,4086605
1756899741.9724655,0.4383385181427002,128,-164330,-8010,4086637
1756899741.9734683,0.43934130668640137,128,-164290,-6105,4086669
1756899741.9734683,0.43934130668640137,128,-164515,-4450,4086701
1756899741.9734683,0.43934130668640137,128,-164455,-3625,4086733
1756899741.9737136,0.4395866394042969,128,-164620,-2760,4086765
1756899741.9737973,0.4396703243255615,128,-164385,-1555,4086797
1756899741.9737973,0.4396703243255615,128,-164210,-4575,4086829
1756899741.9737973,0.4396703243255615,128,-164285,-16555,4086861
1756899741.9737973,0.4396703243255615,128,-164165,-13070,4086893
1756899741.9737973,0.4396703243255615,128,-164090,-9285,4086925
1756899741.9803293,0.44620227813720703,128,-164340,-8415,4086957
1756899741.9813297,0.4472026824951172,128,-164490,-7980,4086989
1756899741.9813297,0.4472026824951172,128,-164475,-5225,4087021
1756899741.9813297,0.4472026824951172,128,-164375,-1920,4087053
1756899741.9813297,0.4472026824951172,128,-164215,-3400,4087085
1756899742.0849795,0.5508525371551514,128,-164065,-4620,4087117
1756899742.0860472,0.5519201755523682,128,-163800,-4285,4087149
1756899742.2183433,0.6842162609100342,128,-164040,-4250,4087181
1756899742.2183433,0.6842162609100342,128,-164165,-6375,4087213
1756899742.2203443,0.6862173080444336,128,-164455,-16880,4087245
1756899742.221343,0.68721604347229,128,-164275,-11420,4087277
1756899742.221343,0.68721604347229,128,-163920,-7915,4087309
1756899742.221343,0.68721604347229,128,-163870,-7950,4087341
1756899742.221343,0.68721604347229,128,-164045,-8355,4087373
1756899742.221343,0.68721604347229,128,-164045,-6825,4087405
1756899742.221343,0.68721604347229,128,-163985,-7025,4087437
1756899742.221343,0.68721604347229,128,-164025,-9695,4087469
1756899742.221343,0.68721604347229,128,-164155,-9110,4087501
1756899742.2223437,0.6882166862487793,128,-164100,-7895,4087533
1756899742.2228518,0.6887247562408447,128,-164110,-7250,4087565
1756899742.2278588,0.6937317848205566,128,-164080,-7300,4087597
1756899742.2278588,0.6937317848205566,128,-163960,-7585,4087629
1756899742.230859,0.6967320442199707,128,-164115,-8520,4087661
1756899742.230859,0.6967320442199707,128,-163965,-8795,4087693
1756899742.230859,0.6967320442199707,128,-163995,-8190,4087725
1756899742.230859,0.6967320442199707,128,-164075,-7745,4087757
1756899742.3743396,0.8402125835418701,128,-164125,-8080,4087789
1756899742.3743396,0.8402125835418701,128,-164205,-8135,4087821
1756899742.3743396,0.8402125835418701,128,-164105,-8365,4087853
1756899742.3743396,0.8402125835418701,128,-164195,-8655,4087885
1756899742.375344,0.841217041015625,128,-164055,-8570,4087917
1756899742.375344,0.841217041015625,128,-164160,-8610,4087949
1756899742.375344,0.841217041015625,128,-164215,-8600,4087981
1756899742.375344,0.841217041015625,128,-164140,-8470,4088013
1756899742.375344,0.841217041015625,128,-164235,-8425,4088045
1756899742.375344,0.841217041015625,128,-164180,-8030,4088077
1756899742.3763433,0.8422162532806396,128,-164260,-7745,4088109
1756899742.377346,0.8432190418243408,128,-164170,-7475,4088141
1756899742.377346,0.8432190418243408,128,-164055,-7285,4088173
1756899742.377346,0.8432190418243408,128,-163940,-7335,4088205
1756899742.377346,0.8432190418243408,128,-164200,-7305,4088237
1756899742.377346,0.8432190418243408,128,-164010,-7320,4088269
1756899742.3783443,0.8442173004150391,128,-163990,-7435,4088301
1756899742.3783443,0.8442173004150391,128,-164170,-7550,4088333
1756899742.3783443,0.8442173004150391,128,-164085,-7390,4088365
1756899742.3783443,0.8442173004150391,128,-164085,-7825,4088397
1756899742.3783443,0.8442173004150391,128,-164000,-7920,4088429
1756899742.3783443,0.8442173004150391,128,-164095,-8015,4088461
1756899742.3783443,0.8442173004150391,128,-163975,-8300,4088493
1756899742.3783443,0.8442173004150391,128,-164145,-8350,4088525
1756899742.3783443,0.8442173004150391,128,-164100,-8655,4088557
1756899742.3783443,0.8442173004150391,128,-164110,-8695,4088589
1756899742.3783443,0.8442173004150391,128,-164100,-8535,4088621
1756899742.3783443,0.8442173004150391,128,-164040,-8520,4088653
1756899742.3793445,0.8452174663543701,128,-164135,-8330,4088685
1756899742.3793445,0.8452174663543701,128,-163980,-8100,4088717
1756899742.3793445,0.8452174663543701,128,-163865,-7860,4088749
1756899742.3793445,0.8452174663543701,128,-163915,-7695,4088781
1756899742.3793445,0.8452174663543701,128,-163775,-7160,4088813
1756899742.3793445,0.8452174663543701,128,-163715,-7335,4088845
1756899742.3928707,0.8587436676025391,128,-163795,-6780,4088877
1756899742.3958797,0.8617527484893799,128,-163805,-6800,4088909
1756899742.3958797,0.8617527484893799,128,-163840,-6640,4088941
1756899742.3958797,0.8617527484893799,128,-163825,-8375,4088973
1756899742.3958797,0.8617527484893799,128,-163890,-8845,4089005
1756899742.3958797,0.8617527484893799,128,-163840,-9145,4089037
1756899742.3958797,0.8617527484893799,128,-163705,-9315,4089069
1756899742.3958797,0.8617527484893799,128,-163825,-8355,4089101
1756899742.3958797,0.8617527484893799,128,-163645,-9255,4089133
1756899742.3968797,0.8627526760101318,128,-163940,-10265,4089165
1756899742.3968797,0.8627526760101318,128,-163905,-10585,4089197
1756899742.3968797,0.8627526760101318,128,-163800,-9070,4089229
1756899742.3968797,0.8627526760101318,128,-163990,-7780,4089261
1756899742.3968797,0.8627526760101318,128,-164065,-8600,4089293
1756899742.3968797,0.8627526760101318,128,-163940,-9620,4089325
1756899742.3978791,0.8637521266937256,128,-163785,-8570,4089357
1756899742.3978791,0.8637521266937256,128,-163620,-8350,4089389
1756899742.3978791,0.8637521266937256,128,-163740,-8335,4089421
1756899742.3978791,0.8637521266937256,128,-163720,-7365,4089453
1756899742.3988788,0.8647518157958984,128,-163670,-6895,4089485
1756899742.3988788,0.8647518157958984,128,-163855,-7155,4089517
1756899742.3998792,0.8657522201538086,128,-163805,-7265,4089549
1756899742.3998792,0.8657522201538086,128,-163685,-7570,4089581
1756899742.3998792,0.8657522201538086,128,-163770,-7520,4089613
1756899742.3998792,0.8657522201538086,128,-163795,-7760,4089645
1756899742.4008782,0.8667511940002441,128,-163775,-7825,4089677
1756899742.4008782,0.8667511940002441,128,-163970,-7805,4089709
1756899742.4008782,0.8667511940002441,128,-163915,-7965,4089741
1756899742.4008782,0.8667511940002441,128,-163950,-7850,4089773
1756899742.4008782,0.8667511940002441,128,-164010,-7520,4089805
1756899742.4008782,0.8667511940002441,128,-163995,-7940,4089837
1756899742.4008782,0.8667511940002441,128,-163980,-6275,4089869
1756899742.4023805,0.8682534694671631,128,-164150,-6045,4089901
1756899742.4023805,0.8682534694671631,128,-164115,-6025,4089933
1756899742.4023805,0.8682534694671631,128,-164155,-4755,4089965
1756899742.4023805,0.8682534694671631,128,-164225,-5815,4089997
1756899742.4023805,0.8682534694671631,128,-163635,-5830,4090029
1756899742.4023805,0.8682534694671631,128,-163510,-9465,4090061
1756899742.4023805,0.8682534694671631,128,-163925,-14540,4090093
1756899742.403384,0.8692569732666016,128,-163875,-12745,4090125
1756899742.403384,0.8692569732666016,128,-163690,-9625,4090157
1756899742.4043849,0.8702578544616699,128,-163495,-8945,4090189
1756899742.4043849,0.8702578544616699,128,-163495,-9255,4090221
1756899742.4053893,0.8712623119354248,128,-163495,-8530,4090253
1756899742.4053893,0.8712623119354248,128,-163535,-6870,4090285
1756899742.4073894,0.8732624053955078,128,-163530,-7895,4090317
1756899742.4073894,0.8732624053955078,128,-163390,-7460,4090349
1756899742.4128942,0.8787672519683838,128,-163425,-6545,4090381
1756899742.4139004,0.8797733783721924,128,-163485,-7565,4090413
1756899742.4139004,0.8797733783721924,128,-163710,-12825,4090445
1756899742.4139004,0.8797733783721924,128,-163650,-13115,4090477
1756899742.4139004,0.8797733783721924,128,-163820,-11300,4090509
1756899742.414899,0.8807721138000488,128,-164065,-10050,4090541
1756899742.4209032,0.8867762088775635,128,-163810,-6700,4090573
1756899742.4224062,0.8882791996002197,128,-163735,-7680,4090605
1756899742.42341,0.8892829418182373,128,-163625,-7450,4090637
1756899742.42341,0.8892829418182373,128,-163925,-5240,4090669
1756899742.4244108,0.8902838230133057,128,-163810,-2545,4090701
1756899742.4254143,0.8912873268127441,128,-163890,-3085,4090733
1756899742.4264145,0.8922874927520752,128,-163760,-6355,4090765
1756899742.429416,0.8952889442443848,128,-163645,-6980,4090797
1756899742.429416,0.8952889442443848,128,-163535,-5805,4090829
1756899742.429416,0.8952889442443848,128,-163540,-4145,4090861
1756899742.4304154,0.8962883949279785,128,-163700,-9885,4090893
1756899742.4304154,0.8962883949279785,128,-163625,-12550,4090925
1756899742.432922,0.8987948894500732,128,-163430,-9710,4090957
1756899742.432922,0.8987948894500732,128,-163315,-8030,4090989
1756899742.4339285,0.89980149269104,128,-163200,-6885,4091021
1756899742.4339285,0.89980149269104,128,-163450,-8090,4091053
1756899742.4349267,0.9007997512817383,128,-163560,-8750,4091085
1756899742.4364295,0.9023025035858154,128,-163350,-9395,4091117
1756899742.4384336,0.9043066501617432,128,-163775,-9310,4091149
1756899742.4384336,0.9043066501617432,128,-163585,-9265,4091181
1756899742.4394326,0.9053056240081787,128,-163535,-8910,4091213
1756899742.4404328,0.9063057899475098,128,-163655,-8805,4091245
1756899742.4404328,0.9063057899475098,128,-163605,-8920,4091277
1756899742.4404328,0.9063057899475098,128,-163520,-8595,4091309
1756899742.4404328,0.9063057899475098,128,-163555,-8400,4091341
1756899742.4404328,0.9063057899475098,128,-163260,-8340,4091373
1756899742.4414332,0.9073061943054199,128,-163325,-8055,4091405
1756899742.4414332,0.9073061943054199,128,-163270,-7930,4091437
1756899742.4414332,0.9073061943054199,128,-163265,-7805,4091469
1756899742.4424343,0.9083073139190674,128,-163310,-7555,4091501
1756899742.4424343,0.9083073139190674,128,-163305,-7630,4091533
1756899742.4429371,0.9088101387023926,128,-163270,-7455,4091565
1756899742.4429371,0.9088101387023926,128,-163390,-7545,4091597
1756899742.4429371,0.9088101387023926,128,-163260,-7610,4091629
1756899742.4429371,0.9088101387023926,128,-163265,-7950,4091661
1756899742.4439416,0.9098145961761475,128,-163340,-8070,4091693
1756899742.4439416,0.9098145961761475,128,-163385,-8105,4091725
1756899742.4439416,0.9098145961761475,128,-163340,-8170,4091757
1756899742.4469464,0.9128193855285645,128,-163140,-8535,4091789
1756899742.4469464,0.9128193855285645,128,-163365,-8615,4091821
1756899742.4479454,0.913818359375,128,-163425,-8925,4091853
1756899742.4479454,0.913818359375,128,-163410,-8640,4091885
1756899742.4479454,0.913818359375,128,-163360,-8700,4091917
1756899742.4479454,0.913818359375,128,-163375,-8520,4091949
1756899742.4489474,0.9148204326629639,128,-163400,-8305,4091981
1756899742.449947,0.9158201217651367,128,-163310,-8110,4092013
1756899742.449947,0.9158201217651367,128,-163360,-7985,4092045
1756899742.449947,0.9158201217651367,128,-163320,-7895,4092077
1756899742.449947,0.9158201217651367,128,-163470,-7535,4092109
1756899742.449947,0.9158201217651367,128,-163285,-7360,4092141
1756899742.4509451,0.9168181419372559,128,-163205,-7450,4092173
1756899742.452449,0.9183220863342285,128,-163165,-7250,4092205
1756899742.4534533,0.9193263053894043,128,-163120,-7405,4092237
1756899742.4534533,0.9193263053894043,128,-163135,-7450,4092269
1756899742.4534533,0.9193263053894043,128,-163095,-7795,4092301
1756899742.4534533,0.9193263053894043,128,-163095,-7820,4092333
1756899742.4534533,0.9193263053894043,128,-163390,-7990,4092365
1756899742.4534533,0.9193263053894043,128,-163120,-8130,4092397
1756899742.4534533,0.9193263053894043,128,-163280,-8350,4092429
1756899742.4534533,0.9193263053894043,128,-163225,-8635,4092461
1756899742.4534533,0.9193263053894043,128,-163270,-8785,4092493
1756899742.4534533,0.9193263053894043,128,-163345,-8660,4092525
1756899742.4534533,0.9193263053894043,128,-163325,-8685,4092557
1756899742.4534533,0.9193263053894043,128,-163175,-8425,4092589
1756899742.454454,0.9203269481658936,128,-163205,-8220,4092621
1756899742.454454,0.9203269481658936,128,-163250,-8310,4092653
1756899742.454454,0.9203269481658936,128,-163170,-8105,4092685
1756899742.454454,0.9203269481658936,128,-163335,-7915,4092717
1756899742.454454,0.9203269481658936,128,-163150,-7425,4092749
1756899742.454454,0.9203269481658936,128,-162985,-7525,4092781
1756899742.454454,0.9203269481658936,128,-163225,-7380,4092813
1756899742.454454,0.9203269481658936,128,-163035,-7465,4092845
1756899742.454454,0.9203269481658936,128,-163145,-7525,4092877
1756899742.454454,0.9203269481658936,128,-163080,-7580,4092909
1756899742.454454,0.9203269481658936,128,-163235,-7800,4092941
1756899742.4554574,0.921330451965332,128,-163085,-7840,4092973
1756899742.4554574,0.921330451965332,128,-163180,-7975,4093005
1756899742.4554574,0.921330451965332,128,-163085,-8205,4093037
1756899742.4554574,0.921330451965332,128,-163015,-8500,4093069
1756899742.4554574,0.921330451965332,128,-163090,-8535,4093101
1756899742.4554574,0.921330451965332,128,-163335,-8690,4093133
1756899742.4554574,0.921330451965332,128,-163085,-8535,4093165
1756899742.4554574,0.921330451965332,128,-163105,-8660,4093197
1756899742.4554574,0.921330451965332,128,-163050,-8595,4093229
1756899742.4554574,0.921330451965332,128,-163185,-8690,4093261
1756899742.4564574,0.922330379486084,128,-163110,-8710,4093293
1756899742.4564574,0.922330379486084,128,-163030,-8320,4093325
1756899742.4564574,0.922330379486084,128,-162940,-7775,4093357
1756899742.4564574,0.922330379486084,128,-162905,-7360,4093389
1756899742.4564574,0.922330379486084,128,-163015,-7405,4093421
1756899742.4564574,0.922330379486084,128,-162900,-7330,4093453
1756899742.4564574,0.922330379486084,128,-162935,-7060,4093485
1756899742.4564574,0.922330379486084,128,-162995,-7395,4093517
1756899742.4564574,0.922330379486084,128,-162975,-7370,4093549
1756899742.4564574,0.922330379486084,128,-163050,-7505,4093581
1756899742.4564574,0.922330379486084,128,-163190,-7605,4093613
1756899742.4564574,0.922330379486084,128,-163125,-7640,4093645
1756899742.4614584,0.9273314476013184,128,-163035,-8190,4093677
1756899742.4614584,0.9273314476013184,128,-163035,-8085,4093709
1756899742.4614584,0.9273314476013184,128,-163295,-8380,4093741
1756899742.4614584,0.9273314476013184,128,-163090,-8380,4093773
1756899742.4614584,0.9273314476013184,128,-163260,-8710,4093805
1756899742.4614584,0.9273314476013184,128,-163095,-8600,4093837
1756899742.4614584,0.9273314476013184,128,-163055,-8575,4093869
1756899742.4624581,0.9283311367034912,128,-163245,-8565,4093901
1756899742.4639685,0.9298415184020996,128,-163305,-8425,4093933
1756899742.4639685,0.9298415184020996,128,-163285,-7980,4093965
1756899742.4639685,0.9298415184020996,128,-163070,-8070,4093997
1756899742.464969,0.9308419227600098,128,-163130,-7625,4094029
1756899742.464969,0.9308419227600098,128,-163105,-7345,4094061
1756899742.464969,0.9308419227600098,128,-163075,-7445,4094093
1756899742.464969,0.9308419227600098,128,-163030,-7410,4094125
1756899742.4689739,0.9348468780517578,128,-163010,-7300,4094157
1756899742.4689739,0.9348468780517578,128,-163075,-7170,4094189
1756899742.4699724,0.9358453750610352,128,-163040,-7350,4094221
1756899742.4699724,0.9358453750610352,128,-163030,-7795,4094253
1756899742.4709754,0.9368484020233154,128,-162985,-8145,4094285
1756899742.4709754,0.9368484020233154,128,-163050,-8025,4094317
1756899742.4709754,0.9368484020233154,128,-162905,-8200,4094349
1756899742.471977,0.9378499984741211,128,-162960,-8405,4094381
1756899742.471977,0.9378499984741211,128,-163145,-8435,4094413
1756899742.4726434,0.93851637840271,128,-162950,-8770,4094445
1756899742.4726434,0.93851637840271,128,-163150,-8795,4094477
1756899742.4726434,0.93851637840271,128,-163225,-8770,4094509
1756899742.4764938,0.9423668384552002,128,-163085,-8800,4094541
1756899742.477493,0.9433660507202148,128,-163065,-8700,4094573
1756899742.477493,0.9433660507202148,128,-163060,-8425,4094605
1756899742.4784946,0.9443676471710205,128,-162980,-8280,4094637
1756899742.4784946,0.9443676471710205,128,-163025,-8325,4094669
1756899742.4794934,0.945366382598877,128,-162985,-8585,4094701
1756899742.4814937,0.9473667144775391,128,-162960,-7895,4094733
1756899742.4824934,0.9483664035797119,128,-163050,-7280,4094765
1756899742.4829988,0.9488718509674072,128,-162880,-7035,4094797
1756899742.4860091,0.9518821239471436,128,-162980,-7165,4094829
1756899742.4860091,0.9518821239471436,128,-162985,-7350,4094861
1756899742.488009,0.9538819789886475,128,-162870,-7460,4094893
1756899742.488009,0.9538819789886475,128,-163150,-7490,4094925
1756899742.4890103,0.954883337020874,128,-163075,-7780,4094957
1756899742.4890103,0.954883337020874,128,-163005,-7960,4094989
1756899742.4900095,0.9558825492858887,128,-163035,-8325,4095021
1756899742.4900095,0.9558825492858887,128,-163050,-8365,4095053
1756899742.491009,0.9568819999694824,128,-163105,-8420,4095085
1756899742.491009,0.9568819999694824,128,-163090,-8290,4095117
1756899742.491009,0.9568819999694824,128,-163090,-7745,4095149
1756899742.4925115,0.9583845138549805,128,-163170,-7505,4095181
1756899742.4925115,0.9583845138549805,128,-163095,-7225,4095213
1756899742.4935162,0.9593892097473145,128,-163195,-7015,4095245
1756899742.4935162,0.9593892097473145,128,-163175,-6615,4095277
1756899742.4975188,0.9633917808532715,128,-163150,-6420,4095309
1756899742.4975188,0.9633917808532715,128,-163070,-6910,4095341
1756899742.5000262,0.9658992290496826,128,-163395,-8965,4095373
1756899742.5000262,0.9658992290496826,128,-163445,-10100,4095405
1756899742.5000262,0.9658992290496826,128,-163440,-8320,4095437
1756899742.5000262,0.9658992290496826,128,-163160,-7320,4095469
1756899742.5010262,0.9668991565704346,128,-163170,-7305,4095501
1756899742.5035362,0.9694092273712158,128,-163115,-7525,4095533
1756899742.5035362,0.9694092273712158,128,-163140,-7670,4095565
1756899742.504535,0.9704079627990723,128,-163170,-7805,4095597
1756899742.504535,0.9704079627990723,128,-163080,-8095,4095629
1756899742.504535,0.9704079627990723,128,-162910,-8085,4095661
1756899742.504535,0.9704079627990723,128,-162825,-8210,4095693
1756899742.5055394,0.9714124202728271,128,-162910,-8560,4095725
1756899742.5055394,0.9714124202728271,128,-162705,-8625,4095757
1756899742.5065382,0.9724111557006836,128,-162755,-8545,4095789
1756899742.5065382,0.9724111557006836,128,-163035,-8660,4095821
1756899742.5065382,0.9724111557006836,128,-163285,-8635,4095853
1756899742.5065382,0.9724111557006836,128,-163445,-8495,4095885
1756899742.5085385,0.9744114875793457,128,-163745,-8390,4095917
1756899742.5085385,0.9744114875793457,128,-163865,-8120,4095949
1756899742.5085385,0.9744114875793457,128,-163755,-7845,4095981
1756899742.5085385,0.9744114875793457,128,-163705,-7535,4096013
1756899742.5085385,0.9744114875793457,128,-163610,-7365,4096045
1756899742.5095387,0.9754116535186768,128,-163415,-7260,4096077
1756899742.5095387,0.9754116535186768,128,-163390,-7535,4096109
1756899742.5095387,0.9754116535186768,128,-163105,-7345,4096141
1756899742.5095387,0.9754116535186768,128,-162960,-7390,4096173
1756899742.5095387,0.9754116535186768,128,-163000,-7535,4096205
1756899742.5095387,0.9754116535186768,128,-163120,-7645,4096237
1756899742.5095387,0.9754116535186768,128,-163040,-7720,4096269
1756899742.5130436,0.9789166450500488,128,-163015,-7945,4096301
1756899742.518053,0.9839260578155518,128,-163020,-8100,4096333
1756899742.5190525,0.9849255084991455,128,-163510,-8135,4096365
1756899742.5200534,0.9859263896942139,128,-163715,-8540,4096397
1756899742.5210528,0.9869258403778076,128,-163700,-8680,4096429
1756899742.5210528,0.9869258403778076,128,-163895,-8660,4096461
1756899742.5235622,0.9894351959228516,128,-163755,-8640,4096493
1756899742.524562,0.9904348850250244,128,-163725,-8550,4096525
1756899742.5265648,0.9924378395080566,128,-163255,-8420,4096557
1756899742.5265648,0.9924378395080566,128,-163285,-8200,4096589
1756899742.5275648,0.9934377670288086,128,-163145,-7980,4096621
1756899742.5275648,0.9934377670288086,128,-163245,-7675,4096653
1756899742.5275648,0.9934377670288086,128,-163065,-7405,4096685
1756899742.5285678,0.9944407939910889,128,-163570,-7310,4096717
1756899742.5285678,0.9944407939910889,128,-163520,-7300,4096749
1756899742.5295665,0.9954395294189453,128,-163800,-7330,4096781
1756899742.5295665,0.9954395294189453,128,-163705,-7230,4096813
1756899742.5305653,0.9964382648468018,128,-163660,-7570,4096845
1756899742.5305653,0.9964382648468018,128,-163640,-7640,4096877
1756899742.531565,0.9974379539489746,128,-163450,-7660,4096909
1756899742.531565,0.9974379539489746,128,-163470,-7830,4096941
1756899742.535086,1.0009589195251465,128,-163290,-7950,4096973
1756899742.5360844,1.0019574165344238,128,-162820,-8110,4097005
1756899742.538084,1.0039570331573486,128,-162690,-8295,4097037
1756899742.538084,1.0039570331573486,128,-162340,-8325,4097069
1756899742.538084,1.0039570331573486,128,-162755,-8295,4097101
1756899742.538084,1.0039570331573486,128,-162725,-8055,4097133
1756899742.5390842,1.0049571990966797,128,-162825,-7835,4097165
1756899742.541083,1.0069561004638672,128,-163035,-7810,4097197
1756899742.541083,1.0069561004638672,128,-163075,-7555,4097229
1756899742.5425868,1.0084598064422607,128,-163225,-7165,4097261
1756899742.5425868,1.0084598064422607,128,-163300,-7160,4097293
1756899742.5425868,1.0084598064422607,128,-163255,-6975,4097325
1756899742.5425868,1.0084598064422607,128,-163045,-6955,4097357
1756899742.5435925,1.0094654560089111,128,-162990,-6940,4097389
1756899742.5435925,1.0094654560089111,128,-163020,-6995,4097421
1756899742.544592,1.0104649066925049,128,-162895,-6840,4097453
1756899742.544592,1.0104649066925049,128,-162655,-7110,4097485
1756899742.544592,1.0104649066925049,128,-162495,-7315,4097517
1756899742.5450969,1.010969877243042,128,-162965,-7395,4097549
1756899742.5450969,1.010969877243042,128,-163150,-7585,4097581
1756899742.5450969,1.010969877243042,128,-163345,-7735,4097613
1756899742.5461025,1.0119755268096924,128,-163425,-7980,4097645
1756899742.5471063,1.01297926902771,128,-163415,-8285,4097677
1756899742.5471063,1.01297926902771,128,-163600,-8395,4097709
1756899742.5471063,1.01297926902771,128,-163400,-8410,4097741
1756899742.5471063,1.01297926902771,128,-163295,-8295,4097773
1756899742.5471063,1.01297926902771,128,-163165,-8245,4097805
1756899742.5471063,1.01297926902771,128,-163135,-8265,4097837
1756899742.5481017,1.013974666595459,128,-162860,-7820,4097869
1756899742.5481017,1.013974666595459,128,-162695,-7475,4097901
1756899742.5481017,1.013974666595459,128,-162490,-7305,4097933
1756899742.5481017,1.013974666595459,128,-162495,-7025,4097965
1756899742.5481017,1.013974666595459,128,-162655,-7065,4097997
1756899742.5481017,1.013974666595459,128,-162420,-6855,4098029
1756899742.5481017,1.013974666595459,128,-162575,-6770,4098061
1756899742.5481017,1.013974666595459,128,-162500,-6735,4098093
1756899742.5481017,1.013974666595459,128,-162440,-6540,4098125
1756899742.5481017,1.013974666595459,128,-162490,-6465,4098157
1756899742.5481017,1.013974666595459,128,-162365,-6735,4098189
1756899742.5481017,1.013974666595459,128,-162315,-6855,4098221
1756899742.5491009,1.0149738788604736,128,-162320,-7255,4098253
1756899742.5491009,1.0149738788604736,128,-162360,-7305,4098285
1756899742.5491009,1.0149738788604736,128,-162400,-7440,4098317
1756899742.5491009,1.0149738788604736,128,-162550,-7630,4098349
1756899742.5491009,1.0149738788604736,128,-162615,-7700,4098381
1756899742.5491009,1.0149738788604736,128,-162750,-7630,4098413
1756899742.5491009,1.0149738788604736,128,-162850,-7550,4098445
1756899742.5491009,1.0149738788604736,128,-162745,-7635,4098477
1756899742.5491009,1.0149738788604736,128,-162765,-7465,4098509
1756899742.5491009,1.0149738788604736,128,-162750,-7580,4098541
1756899742.5491009,1.0149738788604736,128,-162785,-7440,4098573
1756899742.5491009,1.0149738788604736,128,-162795,-7235,4098605
1756899742.5491009,1.0149738788604736,128,-162990,-7180,4098637
1756899742.550103,1.0159759521484375,128,-162795,-7205,4098669
1756899742.550103,1.0159759521484375,128,-162725,-7275,4098701
1756899742.550103,1.0159759521484375,128,-162605,-7175,4098733
1756899742.550103,1.0159759521484375,128,-162615,-7275,4098765
1756899742.550103,1.0159759521484375,128,-162825,-7345,4098797
1756899742.550103,1.0159759521484375,128,-163260,-7410,4098829
1756899742.550103,1.0159759521484375,128,-163360,-7375,4098861
1756899742.550103,1.0159759521484375,128,-163345,-7605,4098893
1756899742.550103,1.0159759521484375,128,-163315,-7795,4098925
1756899742.550103,1.0159759521484375,128,-163420,-7955,4098957
1756899742.550103,1.0159759521484375,128,-163910,-8060,4098989
1756899742.550103,1.0159759521484375,128,-164055,-8190,4099021
1756899742.550103,1.0159759521484375,128,-164460,-8220,4099053
1756899742.5511007,1.0169737339019775,128,-164590,-8400,4099085
1756899742.5511007,1.0169737339019775,128,-165135,-8450,4099117
1756899742.5511007,1.0169737339019775,128,-165465,-8395,4099149
1756899742.5511007,1.0169737339019775,128,-165820,-8555,4099181
1756899742.5511007,1.0169737339019775,128,-165250,-8275,4099213
1756899742.5511007,1.0169737339019775,128,-165145,-7940,4099245
1756899742.5511007,1.0169737339019775,128,-164465,-7860,4099277
1756899742.5511007,1.0169737339019775,128,-164210,-7940,4099309
1756899742.5511007,1.0169737339019775,128,-163910,-8030,4099341
1756899742.5511007,1.0169737339019775,128,-163410,-7960,4099373
1756899742.5511007,1.0169737339019775,128,-163010,-7835,4099405
1756899742.5511007,1.0169737339019775,128,-162725,-7525,4099437
1756899742.5511007,1.0169737339019775,128,-162355,-7125,4099469
1756899742.5511007,1.0169737339019775,128,-162375,-6965,4099501
1756899742.5511007,1.0169737339019775,128,-162910,-7265,4099533
1756899742.5511007,1.0169737339019775,128,-163135,-7255,4099565
1756899742.5511007,1.0169737339019775,128,-163215,-7270,4099597
1756899742.5511007,1.0169737339019775,128,-163590,-7965,4099629
1756899742.5511007,1.0169737339019775,128,-164015,-8275,4099661
1756899742.5511007,1.0169737339019775,128,-164570,-8390,4099693
1756899742.5526028,1.0184757709503174,128,-165040,-8425,4099725
1756899742.5526028,1.0184757709503174,128,-165320,-8395,4099757
1756899742.5526028,1.0184757709503174,128,-165010,-8535,4099789
1756899742.5526028,1.0184757709503174,128,-164730,-7955,4099821
1756899742.5526028,1.0184757709503174,128,-164260,-7280,4099853
1756899742.5526028,1.0184757709503174,128,-163795,-7170,4099885
1756899742.5526028,1.0184757709503174,128,-163070,-6860,4099917
1756899742.5526028,1.0184757709503174,128,-162680,-6765,4099949
1756899742.5526028,1.0184757709503174,128,-162165,-6830,4099981
1756899742.5526028,1.0184757709503174,128,-161560,-6930,4100013
1756899742.5526028,1.0184757709503174,128,-161160,-6860,4100045
1756899742.5526028,1.0184757709503174,128,-161270,-6820,4100077
1756899742.5526028,1.0184757709503174,128,-161265,-7030,4100109
1756899742.5536084,1.0194814205169678,128,-161170,-7055,4100141
1756899742.5536084,1.0194814205169678,128,-161370,-7110,4100173
1756899742.5536084,1.0194814205169678,128,-161570,-7080,4100205
1756899742.5536084,1.0194814205169678,128,-161630,-7330,4100237
1756899742.5536084,1.0194814205169678,128,-161910,-7660,4100269
1756899742.5536084,1.0194814205169678,128,-161965,-7925,4100301
1756899742.5536084,1.0194814205169678,128,-162280,-7860,4100333
1756899742.5536084,1.0194814205169678,128,-162505,-8200,4100365
1756899742.5536084,1.0194814205169678,128,-162480,-8430,4100397
1756899742.5536084,1.0194814205169678,128,-162715,-8575,4100429
1756899742.5536084,1.0194814205169678,128,-162820,-8110,4100461
1756899742.5536084,1.0194814205169678,128,-162980,-8065,4100493
1756899742.5536084,1.0194814205169678,128,-162850,-7985,4100525
1756899742.5536084,1.0194814205169678,128,-162930,-7390,4100557
1756899742.5546076,1.0204806327819824,128,-162860,-7070,4100589
1756899742.5546076,1.0204806327819824,128,-162660,-6870,4100621
1756899742.5546076,1.0204806327819824,128,-162745,-6945,4100653
1756899742.5546076,1.0204806327819824,128,-162765,-7010,4100685
1756899742.5546076,1.0204806327819824,128,-162505,-7050,4100717
1756899742.5546076,1.0204806327819824,128,-162210,-7095,4100749
1756899742.5546076,1.0204806327819824,128,-161830,-7200,4100781
1756899742.5546076,1.0204806327819824,128,-161920,-7535,4100813
1756899742.5546076,1.0204806327819824,128,-161850,-7670,4100845
1756899742.5546076,1.0204806327819824,128,-162010,-7725,4100877
1756899742.5546076,1.0204806327819824,128,-162130,-7825,4100909
1756899742.5546076,1.0204806327819824,128,-162455,-8045,4100941
1756899742.5546076,1.0204806327819824,128,-162405,-8135,4100973
1756899742.555612,1.0214850902557373,128,-162530,-8345,4101005
1756899742.555612,1.0214850902557373,128,-162570,-8370,4101037
1756899742.555612,1.0214850902557373,128,-162600,-8130,4101069
1756899742.555612,1.0214850902557373,128,-162675,-8255,4101101
1756899742.555612,1.0214850902557373,128,-162565,-8000,4101133
1756899742.555612,1.0214850902557373,128,-162765,-7625,4101165
1756899742.555612,1.0214850902557373,128,-162830,-7605,4101197
1756899742.555612,1.0214850902557373,128,-162700,-7475,4101229
1756899742.555612,1.0214850902557373,128,-162675,-7465,4101261
1756899742.555612,1.0214850902557373,128,-162835,-7430,4101293
1756899742.555612,1.0214850902557373,128,-162760,-7285,4101325
1756899742.555612,1.0214850902557373,128,-162855,-7345,4101357
1756899742.555612,1.0214850902557373,128,-162900,-7380,4101389
1756899742.555612,1.0214850902557373,128,-162900,-7425,4101421
1756899742.5566106,1.0224835872650146,128,-163035,-7445,4101453
1756899742.5566106,1.0224835872650146,128,-163185,-7350,4101485
1756899742.5566106,1.0224835872650146,128,-163265,-7700,4101517
1756899742.5566106,1.0224835872650146,128,-163050,-7825,4101549
1756899742.5566106,1.0224835872650146,128,-163445,-7835,4101581
1756899742.5566106,1.0224835872650146,128,-163390,-7990,4101613
1756899742.5566106,1.0224835872650146,128,-163280,-8300,4101645
1756899742.5566106,1.0224835872650146,128,-163265,-8430,4101677
1756899742.5566106,1.0224835872650146,128,-163295,-8340,4101709
1756899742.5566106,1.0224835872650146,128,-163315,-8245,4101741
1756899742.5566106,1.0224835872650146,128,-163150,-8205,4101773
1756899742.5566106,1.0224835872650146,128,-163255,-7955,4101805
1756899742.5566106,1.0224835872650146,128,-163105,-7805,4101837
1756899742.5576103,1.0234832763671875,128,-163305,-7600,4101869
1756899742.5576103,1.0234832763671875,128,-163180,-7575,4101901
1756899742.5576103,1.0234832763671875,128,-163125,-7370,4101933
1756899742.5576103,1.0234832763671875,128,-163125,-7140,4101965
1756899742.5576103,1.0234832763671875,128,-163300,-7225,4101997
1756899742.5576103,1.0234832763671875,128,-163610,-7180,4102029
1756899742.566131,1.0320041179656982,128,-163650,-7230,4102061
1756899742.566131,1.0320041179656982,128,-163435,-7430,4102093
1756899742.568127,1.0339999198913574,128,-163730,-7615,4102125
1756899742.569128,1.0350010395050049,128,-163935,-7645,4102157
1756899742.570128,1.0360009670257568,128,-164005,-7610,4102189
1756899742.5711267,1.0369997024536133,128,-163835,-7950,4102221
1756899742.5711267,1.0369997024536133,128,-164010,-8055,4102253
1756899742.5746334,1.040506362915039,128,-164015,-8230,4102285
1756899742.5746334,1.040506362915039,128,-164075,-8140,4102317
1756899742.576636,1.0425090789794922,128,-164145,-8255,4102349
1756899742.576636,1.0425090789794922,128,-164015,-8040,4102381
1756899742.5776367,1.0435097217559814,128,-164075,-8120,4102413
1756899742.5776367,1.0435097217559814,128,-163990,-8020,4102445
1756899742.5786395,1.0445125102996826,128,-163935,-7895,4102477
1756899742.5796378,1.0455107688903809,128,-164005,-7705,4102509
1756899742.5796378,1.0455107688903809,128,-163915,-7705,4102541
1756899742.5806367,1.0465097427368164,128,-163690,-7505,4102573
1756899742.5816383,1.047511339187622,128,-163730,-7490,4102605
1756899742.5816383,1.047511339187622,128,-163640,-7505,4102637
1756899742.5851533,1.0510263442993164,128,-163630,-7485,4102669
1756899742.5861528,1.0520257949829102,128,-163660,-7630,4102701
1756899742.5861528,1.0520257949829102,128,-163675,-7820,4102733
1756899742.5881524,1.054025411605835,128,-163625,-7835,4102765
1756899742.5881524,1.054025411605835,128,-163620,-8085,4102797
1756899742.5891535,1.0550265312194824,128,-163645,-8225,4102829
1756899742.5891535,1.0550265312194824,128,-163740,-8380,4102861
1756899742.5916562,1.0575292110443115,128,-163850,-8470,4102893
1756899742.5916562,1.0575292110443115,128,-163715,-8685,4102925
1756899742.5926592,1.0585322380065918,128,-163755,-8825,4102957
1756899742.5926592,1.0585322380065918,128,-163575,-8920,4102989
1756899742.5926592,1.0585322380065918,128,-163665,-9020,4103021
1756899742.5926592,1.0585322380065918,128,-163720,-9075,4103053
1756899742.5926592,1.0585322380065918,128,-163825,-8785,4103085
1756899742.5936644,1.059537410736084,128,-163715,-8565,4103117
1756899742.5946634,1.0605363845825195,128,-163780,-8395,4103149
1756899742.5946634,1.0605363845825195,128,-163675,-8395,4103181
1756899742.5946634,1.0605363845825195,128,-163920,-8100,4103213
1756899742.5946634,1.0605363845825195,128,-164210,-7975,4103245
1756899742.5946634,1.0605363845825195,128,-164460,-7740,4103277
1756899742.595669,1.06154203414917,128,-164505,-7805,4103309
1756899742.5966682,1.0625412464141846,128,-164425,-7915,4103341
1756899742.5966682,1.0625412464141846,128,-164525,-7975,4103373
1756899742.5966682,1.0625412464141846,128,-164670,-7975,4103405
1756899742.5976677,1.0635406970977783,128,-164375,-8115,4103437
1756899742.5976677,1.0635406970977783,128,-164395,-8400,4103469
1756899742.5976677,1.0635406970977783,128,-164355,-8485,4103501
1756899742.5976677,1.0635406970977783,128,-164515,-8460,4103533
1756899742.5976677,1.0635406970977783,128,-165065,-8770,4103565
1756899742.5976677,1.0635406970977783,128,-165055,-8990,4103597
1756899742.5976677,1.0635406970977783,128,-165060,-9135,4103629
1756899742.5986667,1.0645396709442139,128,-164725,-9205,4103661
1756899742.5986667,1.0645396709442139,128,-164905,-9020,4103693
1756899742.5986667,1.0645396709442139,128,-164705,-8760,4103725
1756899742.5986667,1.0645396709442139,128,-164300,-8600,4103757
1756899742.5986667,1.0645396709442139,128,-164005,-8220,4103789
1756899742.5986667,1.0645396709442139,128,-163940,-8020,4103821
1756899742.5986667,1.0645396709442139,128,-163440,-7730,4103853
1756899742.5986667,1.0645396709442139,128,-163535,-7550,4103885
1756899742.5986667,1.0645396709442139,128,-163545,-7535,4103917
1756899742.5986667,1.0645396709442139,128,-163935,-7445,4103949
1756899742.5986667,1.0645396709442139,128,-164380,-7405,4103981
1756899742.5986667,1.0645396709442139,128,-164550,-7380,4104013
1756899742.5986667,1.0645396709442139,128,-164685,-7390,4104045
1756899742.5996702,1.0655431747436523,128,-164570,-7565,4104077
1756899742.5996702,1.0655431747436523,128,-164855,-7610,4104109
1756899742.5996702,1.0655431747436523,128,-164900,-7675,4104141
1756899742.5996702,1.0655431747436523,128,-164800,-8065,4104173
1756899742.5996702,1.0655431747436523,128,-164900,-8235,4104205
1756899742.5996702,1.0655431747436523,128,-164555,-8415,4104237
1756899742.5996702,1.0655431747436523,128,-164915,-8410,4104269
1756899742.5996702,1.0655431747436523,128,-164700,-8480,4104301
1756899742.5996702,1.0655431747436523,128,-164915,-8500,4104333
1756899742.5996702,1.0655431747436523,128,-164690,-8425,4104365
1756899742.5996702,1.0655431747436523,128,-164810,-8445,4104397
1756899742.5996702,1.0655431747436523,128,-164915,-8230,4104429
1756899742.6006677,1.0665407180786133,128,-164925,-8115,4104461
1756899742.6006677,1.0665407180786133,128,-165045,-7755,4104493
1756899742.6006677,1.0665407180786133,128,-165090,-7365,4104525
1756899742.6006677,1.0665407180786133,128,-164945,-7385,4104557
1756899742.6006677,1.0665407180786133,128,-165090,-7235,4104589
1756899742.6006677,1.0665407180786133,128,-165065,-7165,4104621
1756899742.6006677,1.0665407180786133,128,-165140,-7310,4104653
1756899742.6006677,1.0665407180786133,128,-165175,-7195,4104685
1756899742.6006677,1.0665407180786133,128,-165250,-7500,4104717
1756899742.6006677,1.0665407180786133,128,-165200,-7610,4104749
1756899742.6006677,1.0665407180786133,128,-165405,-7715,4104781
1756899742.6006677,1.0665407180786133,128,-165480,-7870,4104813
1756899742.6006677,1.0665407180786133,128,-165640,-8080,4104845
1756899742.6016672,1.067540168762207,128,-165595,-8260,4104877
1756899742.6016672,1.067540168762207,128,-165620,-8425,4104909
1756899742.6016672,1.067540168762207,128,-165850,-8385,4104941
1756899742.6016672,1.067540168762207,128,-165835,-8510,4104973
1756899742.6016672,1.067540168762207,128,-165635,-8525,4105005
1756899742.6016672,1.067540168762207,128,-165640,-8480,4105037
1756899742.6016672,1.067540168762207,128,-165635,-8135,4105069
1756899742.6016672,1.067540168762207,128,-165445,-7920,4105101
1756899742.6016672,1.067540168762207,128,-165445,-7625,4105133
1756899742.6016672,1.067540168762207,128,-165270,-7375,4105165
1756899742.6016672,1.067540168762207,128,-165225,-7255,4105197
1756899742.6016672,1.067540168762207,128,-165275,-7225,4105229
1756899742.6016672,1.067540168762207,128,-165325,-7380,4105261
1756899742.6026676,1.0685405731201172,128,-165270,-7155,4105293
1756899742.6026676,1.0685405731201172,128,-165395,-7270,4105325
1756899742.6026676,1.0685405731201172,128,-165535,-7295,4105357
1756899742.6026676,1.0685405731201172,128,-165520,-7355,4105389
1756899742.6026676,1.0685405731201172,128,-165705,-7445,4105421
1756899742.6026676,1.0685405731201172,128,-165790,-7635,4105453
1756899742.6026676,1.0685405731201172,128,-165710,-7945,4105485
1756899742.6031704,1.0690433979034424,128,-165775,-7990,4105517
1756899742.6031704,1.0690433979034424,128,-165790,-8150,4105549
1756899742.6031704,1.0690433979034424,128,-166000,-8280,4105581
1756899742.6031704,1.0690433979034424,128,-165890,-8285,4105613
1756899742.6031704,1.0690433979034424,128,-166015,-8360,4105645
1756899742.6031704,1.0690433979034424,128,-165940,-8330,4105677
1756899742.6031704,1.0690433979034424,128,-166035,-8255,4105709
1756899742.6031704,1.0690433979034424,128,-165840,-8055,4105741
1756899742.6031704,1.0690433979034424,128,-165885,-7885,4105773
1756899742.6031704,1.0690433979034424,128,-165560,-7550,4105805
1756899742.6031704,1.0690433979034424,128,-165635,-7365,4105837
1756899742.6031704,1.0690433979034424,128,-165725,-7330,4105869
1756899742.6031704,1.0690433979034424,128,-165725,-7105,4105901
1756899742.6031704,1.0690433979034424,128,-165730,-7060,4105933
1756899742.604175,1.0700480937957764,128,-165715,-7175,4105965
1756899742.604175,1.0700480937957764,128,-165525,-7330,4105997
1756899742.604175,1.0700480937957764,128,-165800,-7350,4106029
1756899742.604175,1.0700480937957764,128,-165595,-7535,4106061
1756899742.604175,1.0700480937957764,128,-165745,-7775,4106093
1756899742.604175,1.0700480937957764,128,-165770,-7820,4106125
1756899742.604175,1.0700480937957764,128,-166220,-8110,4106157
1756899742.604175,1.0700480937957764,128,-166370,-8270,4106189
1756899742.604175,1.0700480937957764,128,-166825,-8485,4106221
1756899742.604175,1.0700480937957764,128,-166820,-8585,4106253
1756899742.604175,1.0700480937957764,128,-166760,-8600,4106285
1756899742.604175,1.0700480937957764,128,-166690,-8505,4106317
1756899742.604175,1.0700480937957764,128,-166600,-8410,4106349
1756899742.6051803,1.0710532665252686,128,-166495,-8175,4106381
1756899742.606185,1.0720579624176025,128,-166595,-7995,4106413
1756899742.606185,1.0720579624176025,128,-166625,-7900,4106445
1756899742.606185,1.0720579624176025,128,-166580,-7695,4106477
1756899742.606185,1.0720579624176025,128,-166385,-7415,4106509
1756899742.606185,1.0720579624176025,128,-166410,-7520,4106541
1756899742.606185,1.0720579624176025,128,-166310,-7405,4106573
1756899742.606185,1.0720579624176025,128,-166255,-7280,4106605
1756899742.606185,1.0720579624176025,128,-166465,-7395,4106637
1756899742.606185,1.0720579624176025,128,-166575,-7240,4106669
1756899742.606185,1.0720579624176025,128,-166855,-7565,4106701
1756899742.606185,1.0720579624176025,128,-166320,-7745,4106733
1756899742.606185,1.0720579624176025,128,-166295,-7955,4106765
1756899742.6071787,1.0730516910552979,128,-166110,-7925,4106797
1756899742.6071787,1.0730516910552979,128,-166180,-8220,4106829
1756899742.6071787,1.0730516910552979,128,-166515,-8405,4106861
1756899742.6071787,1.0730516910552979,128,-166720,-8465,4106893
1756899742.6071787,1.0730516910552979,128,-166530,-8515,4106925
1756899742.6071787,1.0730516910552979,128,-166315,-8425,4106957
1756899742.6071787,1.0730516910552979,128,-166320,-8360,4106989
1756899742.6071787,1.0730516910552979,128,-166325,-8345,4107021
1756899742.6071787,1.0730516910552979,128,-166105,-8070,4107053
1756899742.6071787,1.0730516910552979,128,-166045,-7935,4107085
1756899742.6071787,1.0730516910552979,128,-166085,-7645,4107117
1756899742.6071787,1.0730516910552979,128,-165980,-7840,4107149
1756899742.6071787,1.0730516910552979,128,-165815,-7425,4107181
1756899742.608178,1.0740509033203125,128,-166225,-7505,4107213
1756899742.608178,1.0740509033203125,128,-166640,-7585,4107245
1756899742.608178,1.0740509033203125,128,-166865,-7365,4107277
1756899742.608178,1.0740509033203125,128,-167110,-7265,4107309
1756899742.608178,1.0740509033203125,128,-167605,-7435,4107341
1756899742.608178,1.0740509033203125,128,-167905,-7720,4107373
1756899742.60918,1.0750529766082764,128,-167875,-7890,4107405
1756899742.6126828,1.0785558223724365,128,-167950,-8185,4107437
1756899742.6126828,1.0785558223724365,128,-168190,-8190,4107469
1756899742.618691,1.084563970565796,128,-168145,-8260,4107501
1756899742.6196918,1.0855648517608643,128,-168035,-8550,4107533
1756899742.62069,1.0865631103515625,128,-167530,-8755,4107565
1756899742.62069,1.0865631103515625,128,-167525,-8715,4107597
1756899742.6226914,1.088564395904541,128,-166925,-8700,4107629
1756899742.6231937,1.089066743850708,128,-166735,-8375,4107661
1756899742.6252022,1.0910751819610596,128,-166175,-8220,4107693
1756899742.6252022,1.0910751819610596,128,-165685,-8140,4107725
1756899742.628203,1.0940759181976318,128,-165435,-8035,4107757
1756899742.628203,1.0940759181976318,128,-165260,-8025,4107789
1756899742.6292057,1.095078706741333,128,-165125,-7590,4107821
1756899742.6292057,1.095078706741333,128,-165000,-7635,4107853
1756899742.6302059,1.096078872680664,128,-165210,-7530,4107885
1756899742.6302059,1.096078872680664,128,-165335,-7475,4107917
1756899742.6312053,1.0970783233642578,128,-165545,-7420,4107949
1756899742.6312053,1.0970783233642578,128,-165570,-7585,4107981
1756899742.6312053,1.0970783233642578,128,-166280,-7730,4108013
1756899742.632712,1.0985848903656006,128,-166575,-7805,4108045
1756899742.632712,1.0985848903656006,128,-166720,-8055,4108077
1756899742.6337185,1.0995914936065674,128,-166820,-8375,4108109
1756899742.6347172,1.1005902290344238,128,-166590,-8435,4108141
1756899742.6347172,1.1005902290344238,128,-166665,-8630,4108173
1756899742.6377208,1.1035938262939453,128,-166595,-8705,4108205
1756899742.6377208,1.1035938262939453,128,-166405,-8860,4108237
1756899742.6387215,1.1045944690704346,128,-166655,-8915,4108269
1756899742.6402273,1.10610032081604,128,-166500,-8635,4108301
1756899742.6412272,1.107100248336792,128,-166550,-8615,4108333
1756899742.6412272,1.107100248336792,128,-166345,-8560,4108365
1756899742.6412272,1.107100248336792,128,-166525,-8155,4108397
1756899742.6412272,1.107100248336792,128,-166660,-8120,4108429
1756899742.6412272,1.107100248336792,128,-166630,-7870,4108461
1756899742.6447341,1.1106071472167969,128,-166825,-7790,4108493
1756899742.6447341,1.1106071472167969,128,-166745,-7730,4108525
1756899742.645739,1.11161208152771,128,-166870,-7825,4108557
1756899742.645739,1.11161208152771,128,-166975,-7845,4108589
1756899742.645739,1.11161208152771,128,-166720,-7670,4108621
1756899742.645739,1.11161208152771,128,-166550,-7705,4108653
1756899742.6467383,1.1126112937927246,128,-166555,-7905,4108685
1756899742.64774,1.1136128902435303,128,-166600,-8320,4108717
1756899742.64774,1.1136128902435303,128,-166715,-8515,4108749
1756899742.64774,1.1136128902435303,128,-166690,-8540,4108781
1756899742.64774,1.1136128902435303,128,-166915,-8615,4108813
1756899742.6487384,1.1146113872528076,128,-167210,-8860,4108845
1756899742.6487384,1.1146113872528076,128,-167470,-9050,4108877
1756899742.6497407,1.1156136989593506,128,-167470,-9080,4108909
1756899742.6497407,1.1156136989593506,128,-167355,-9060,4108941
1756899742.6497407,1.1156136989593506,128,-167370,-8950,4108973
1756899742.6497407,1.1156136989593506,128,-167730,-8730,4109005
1756899742.6497407,1.1156136989593506,128,-167735,-8610,4109037
1756899742.650739,1.1166119575500488,128,-167560,-8550,4109069
1756899742.650739,1.1166119575500488,128,-167545,-8205,4109101
1756899742.6532407,1.1191136837005615,128,-167400,-8040,4109133
1756899742.6582491,1.124122142791748,128,-167190,-8145,4109165
1756899742.659249,1.1251220703125,128,-167160,-8145,4109197
1756899742.6602511,1.1261241436004639,128,-167240,-8230,4109229
1756899742.6612494,1.127122402191162,128,-167895,-8430,4109261
1756899742.6612494,1.127122402191162,128,-168540,-8360,4109293
1756899742.6627538,1.128626823425293,128,-168425,-8735,4109325
1756899742.6657622,1.1316351890563965,128,-168150,-8910,4109357
1756899742.6677623,1.1336352825164795,128,-167945,-9080,4109389
1756899742.6687622,1.1346352100372314,128,-167600,-9085,4109421
1756899742.6687622,1.1346352100372314,128,-167225,-8985,4109453
1756899742.669762,1.1356348991394043,128,-166635,-9035,4109485
1756899742.669762,1.1356348991394043,128,-166305,-9075,4109517
1756899742.669762,1.1356348991394043,128,-165990,-8910,4109549
1756899742.670762,1.1366350650787354,128,-165995,-8960,4109581
1756899742.670762,1.1366350650787354,128,-165890,-9040,4109613
1756899742.670762,1.1366350650787354,128,-165865,-8755,4109645
1756899742.670762,1.1366350650787354,128,-165925,-8485,4109677
1756899742.6727798,1.1386528015136719,128,-166380,-8395,4109709
1756899742.6727798,1.1386528015136719,128,-166870,-8240,4109741
1756899742.6737854,1.1396584510803223,128,-167250,-7955,4109773
1756899742.6737854,1.1396584510803223,128,-167560,-7965,4109805
1756899742.674784,1.1406569480895996,128,-167890,-7915,4109837
1756899742.674784,1.1406569480895996,128,-168380,-8085,4109869
1756899742.677787,1.143660068511963,128,-168430,-8250,4109901
1756899742.6787894,1.1446623802185059,128,-168415,-8290,4109933
1756899742.6787894,1.1446623802185059,128,-168290,-8295,4109965
1756899742.680787,1.1466600894927979,128,-168135,-8570,4109997
1756899742.6817884,1.1476614475250244,128,-167450,-8695,4110029
1756899742.6817884,1.1476614475250244,128,-166840,-8755,4110061
1756899742.6817884,1.1476614475250244,128,-166640,-8955,4110093
1756899742.6817884,1.1476614475250244,128,-166165,-9235,4110125
1756899742.6852946,1.151167631149292,128,-165685,-9215,4110157
1756899742.6857972,1.151670217514038,128,-165565,-9195,4110189
1756899742.6857972,1.151670217514038,128,-165515,-9400,4110221
1756899742.6857972,1.151670217514038,128,-165485,-9450,4110253
1756899742.6857972,1.151670217514038,128,-165560,-9305,4110285
1756899742.6868002,1.1526732444763184,128,-165575,-9135,4110317
1756899742.6868002,1.1526732444763184,128,-165990,-8845,4110349
1756899742.6878004,1.1536734104156494,128,-166155,-8780,4110381
1756899742.6878004,1.1536734104156494,128,-166490,-8570,4110413
1756899742.6878004,1.1536734104156494,128,-166510,-8385,4110445
1756899742.6878004,1.1536734104156494,128,-166320,-8470,4110477
1756899742.6888015,1.1546745300292969,128,-166475,-8305,4110509
1756899742.6888015,1.1546745300292969,128,-166305,-8210,4110541
1756899742.6898005,1.1556735038757324,128,-166520,-8280,4110573
1756899742.6898005,1.1556735038757324,128,-166360,-8555,4110605
1756899742.6908019,1.156674861907959,128,-166650,-8685,4110637
1756899742.6908019,1.156674861907959,128,-166940,-8840,4110669
1756899742.6908019,1.156674861907959,128,-167155,-9065,4110701
1756899742.6908019,1.156674861907959,128,-167245,-8985,4110733
1756899742.6908019,1.156674861907959,128,-167050,-9465,4110765
1756899742.6908019,1.156674861907959,128,-166920,-9615,4110797
1756899742.6908019,1.156674861907959,128,-166870,-9640,4110829
1756899742.6908019,1.156674861907959,128,-166965,-9595,4110861
1756899742.6908019,1.156674861907959,128,-166945,-9565,4110893
1756899742.7088633,1.1747362613677979,128,-166625,-9525,4110925
1756899742.7098637,1.175736665725708,128,-166700,-9465,4110957
1756899742.7098637,1.175736665725708,128,-166485,-9195,4110989
1756899742.710863,1.1767361164093018,128,-166405,-9035,4111021
1756899742.7123668,1.1782398223876953,128,-166640,-8900,4111053
1756899742.7123668,1.1782398223876953,128,-166570,-8410,4111085
1756899742.7153761,1.1812491416931152,128,-166815,-8490,4111117
1756899742.7183747,1.1842477321624756,128,-167015,-8335,4111149
1756899742.7183747,1.1842477321624756,128,-166930,-8435,4111181
1756899742.7193747,1.1852476596832275,128,-167035,-8450,4111213
1756899742.7193747,1.1852476596832275,128,-167115,-8460,4111245
1756899742.7203746,1.1862475872039795,128,-166995,-8635,4111277
1756899742.734396,1.2002689838409424,128,-167135,-8780,4111309
1756899742.7354,1.201272964477539,128,-167025,-8880,4111341
1756899742.7354,1.201272964477539,128,-167005,-9070,4111373
1756899742.7354,1.201272964477539,128,-167070,-9240,4111405
1756899742.7354,1.201272964477539,128,-167170,-9650,4111437
1756899742.7354,1.201272964477539,128,-167115,-9615,4111469
1756899742.7354,1.201272964477539,128,-167230,-9765,4111501
1756899742.7354,1.201272964477539,128,-167255,-9720,4111533
1756899742.7354,1.201272964477539,128,-167175,-9800,4111565
1756899742.7354,1.201272964477539,128,-167260,-9595,4111597
1756899742.7354,1.201272964477539,128,-167200,-9200,4111629
1756899742.7354,1.201272964477539,128,-167305,-9090,4111661
1756899742.7559514,1.2218244075775146,128,-167345,-8880,4111693
1756899742.756951,1.2228240966796875,128,-167370,-8490,4111725
1756899742.7589512,1.2248241901397705,128,-167380,-8500,4111757
1756899742.7589512,1.2248241901397705,128,-167310,-8505,4111789
1756899742.7599518,1.2258248329162598,128,-167370,-8540,4111821
1756899742.7624557,1.2283287048339844,128,-167335,-8560,4111853
1756899742.7634597,1.229332685470581,128,-167350,-8465,4111885
1756899742.7634597,1.229332685470581,128,-167310,-8620,4111917
1756899742.7644608,1.2303338050842285,128,-167310,-8725,4111949
1756899742.7644608,1.2303338050842285,128,-167345,-8915,4111981
1756899742.7644608,1.2303338050842285,128,-167355,-9130,4112013
1756899742.7654648,1.2313377857208252,128,-167375,-9210,4112045
1756899742.7654648,1.2313377857208252,128,-168080,-9410,4112077
1756899742.766464,1.2323369979858398,128,-168270,-9470,4112109
1756899742.766464,1.2323369979858398,128,-168160,-9600,4112141
1756899742.7674646,1.233337640762329,128,-168125,-9650,4112173
1756899742.7674646,1.233337640762329,128,-167995,-9750,4112205
1756899742.7684639,1.2343368530273438,128,-168090,-9780,4112237
1756899742.7694638,1.2353367805480957,128,-168035,-9540,4112269
1756899742.772465,1.2383379936218262,128,-168070,-9310,4112301
1756899742.772465,1.2383379936218262,128,-167780,-9225,4112333
1756899742.7729676,1.2388405799865723,128,-167625,-8975,4112365
1756899742.774977,1.2408499717712402,128,-167400,-8740,4112397
1756899742.774977,1.2408499717712402,128,-167400,-8565,4112429
1756899742.774977,1.2408499717712402,128,-167160,-8520,4112461
1756899742.7759762,1.2418491840362549,128,-167185,-8530,4112493
1756899742.7759762,1.2418491840362549,128,-167310,-8560,4112525
1756899742.778977,1.2448499202728271,128,-167290,-8795,4112557
1756899742.778977,1.2448499202728271,128,-167135,-8600,4112589
1756899742.778977,1.2448499202728271,128,-167125,-8870,4112621
1756899742.7799766,1.245849609375,128,-167080,-8925,4112653
1756899742.7799766,1.245849609375,128,-167115,-9130,4112685
1756899742.7799766,1.245849609375,128,-167405,-9555,4112717
1756899742.780977,1.2468500137329102,128,-167140,-9405,4112749
1756899742.780977,1.2468500137329102,128,-167145,-9645,4112781
1756899742.780977,1.2468500137329102,128,-167230,-9610,4112813
1756899742.780977,1.2468500137329102,128,-167280,-9865,4112845
1756899742.780977,1.2468500137329102,128,-167430,-9700,4112877
1756899742.7824805,1.2483534812927246,128,-167315,-9525,4112909
1756899742.7824805,1.2483534812927246,128,-167560,-9370,4112941
1756899742.783484,1.249356985092163,128,-167550,-9085,4112973
1756899742.783484,1.249356985092163,128,-167640,-8800,4113005
1756899742.783484,1.249356985092163,128,-167535,-8675,4113037
1756899742.7844858,1.2503588199615479,128,-167470,-8685,4113069
1756899742.7844858,1.2503588199615479,128,-167580,-8335,4113101
1756899742.7844858,1.2503588199615479,128,-167640,-8480,4113133
1756899742.7844858,1.2503588199615479,128,-167675,-8570,4113165
1756899742.7844858,1.2503588199615479,128,-167715,-8395,4113197
1756899742.7844858,1.2503588199615479,128,-167765,-8600,4113229
1756899742.7844858,1.2503588199615479,128,-167570,-8705,4113261
1756899742.7844858,1.2503588199615479,128,-167670,-8980,4113293
1756899742.7844858,1.2503588199615479,128,-167675,-9125,4113325
1756899742.7854893,1.2513623237609863,128,-167720,-9185,4113357
1756899742.7854893,1.2513623237609863,128,-167785,-9155,4113389
1756899742.7854893,1.2513623237609863,128,-167850,-9520,4113421
1756899742.7854893,1.2513623237609863,128,-167740,-9440,4113453
1756899742.7854893,1.2513623237609863,128,-167880,-9495,4113485
1756899742.7854893,1.2513623237609863,128,-167930,-9325,4113517
1756899742.7854893,1.2513623237609863,128,-168030,-9275,4113549
1756899742.7854893,1.2513623237609863,128,-168220,-9115,4113581
1756899742.7854893,1.2513623237609863,128,-168150,-8910,4113613
1756899742.7854893,1.2513623237609863,128,-168145,-8800,4113645
1756899742.7854893,1.2513623237609863,128,-167925,-8535,4113677
1756899742.7854893,1.2513623237609863,128,-168015,-8295,4113709
1756899742.7854893,1.2513623237609863,128,-167890,-8205,4113741
1756899742.7864895,1.2523624897003174,128,-167995,-8150,4113773
1756899742.7864895,1.2523624897003174,128,-167945,-8275,4113805
1756899742.7864895,1.2523624897003174,128,-167970,-8120,4113837
1756899742.7864895,1.2523624897003174,128,-168120,-8310,4113869
1756899742.7864895,1.2523624897003174,128,-168020,-8385,4113901
1756899742.7874897,1.2533626556396484,128,-168070,-8490,4113933
1756899742.7874897,1.2533626556396484,128,-167995,-8685,4113965
1756899742.7874897,1.2533626556396484,128,-168185,-8895,4113997
1756899742.7874897,1.2533626556396484,128,-168120,-9015,4114029
1756899742.7874897,1.2533626556396484,128,-168075,-9020,4114061
1756899742.7894986,1.2553715705871582,128,-168195,-9265,4114093
1756899742.7894986,1.2553715705871582,128,-168340,-9345,4114125
1756899742.7894986,1.2553715705871582,128,-168405,-9320,4114157
1756899742.7894986,1.2553715705871582,128,-168290,-9265,4114189
1756899742.7894986,1.2553715705871582,128,-168090,-9120,4114221
1756899742.7894986,1.2553715705871582,128,-168275,-8925,4114253
1756899742.7950075,1.260880470275879,128,-168130,-8705,4114285
1756899742.7950075,1.260880470275879,128,-168030,-8425,4114317
1756899742.7950075,1.260880470275879,128,-167795,-8395,4114349
1756899742.7959561,1.261829137802124,128,-167905,-8275,4114381
1756899742.7959561,1.261829137802124,128,-168070,-8125,4114413
1756899742.7959561,1.261829137802124,128,-167835,-8130,4114445
1756899742.8074775,1.273350477218628,128,-167960,-8165,4114477
1756899742.8084774,1.2743504047393799,128,-167990,-8180,4114509
1756899742.8084774,1.2743504047393799,128,-167930,-8215,4114541
1756899742.8094778,1.27535080909729,128,-167990,-8350,4114573
1756899742.8104777,1.276350736618042,128,-168090,-8625,4114605
1756899742.8114772,1.2773501873016357,128,-167820,-8720,4114637
1756899742.8129835,1.2788565158843994,128,-168090,-8815,4114669
1756899742.8139899,1.279862880706787,128,-168015,-8935,4114701
1756899742.8160048,1.2818777561187744,128,-168065,-9085,4114733
1756899742.8170052,1.2828781604766846,128,-168040,-9085,4114765
1756899742.8190057,1.2848787307739258,128,-168225,-9310,4114797
1756899742.820006,1.2858788967132568,128,-168050,-9265,4114829
1756899742.820006,1.2858788967132568,128,-168095,-9040,4114861
1756899742.8210049,1.2868778705596924,128,-168200,-8980,4114893
1756899742.8210049,1.2868778705596924,128,-168015,-8625,4114925
1756899742.8210049,1.2868778705596924,128,-168255,-8535,4114957
1756899742.8225074,1.2883803844451904,128,-168055,-8335,4114989
1756899742.8225074,1.2883803844451904,128,-167965,-8175,4115021
1756899742.823512,1.2893850803375244,128,-167840,-7895,4115053
1756899742.823512,1.2893850803375244,128,-168130,-7840,4115085
1756899742.824512,1.2903850078582764,128,-167915,-7915,4115117
1756899742.824512,1.2903850078582764,128,-168095,-7805,4115149
1756899742.8255155,1.2913885116577148,128,-168100,-7840,4115181
1756899742.8255155,1.2913885116577148,128,-168300,-7985,4115213
1756899742.829516,1.29538893699646,128,-168205,-8245,4115245
1756899742.829516,1.29538893699646,128,-168170,-8350,4115277
1756899742.829516,1.29538893699646,128,-168210,-8345,4115309
1756899742.8325152,1.2983882427215576,128,-168150,-8675,4115341
1756899742.8330185,1.298891544342041,128,-168120,-8815,4115373
1756899742.8330185,1.298891544342041,128,-167840,-9095,4115405
1756899742.8330185,1.298891544342041,128,-168100,-9150,4115437
1756899742.8360264,1.3018994331359863,128,-168035,-9270,4115469
1756899742.8360264,1.3018994331359863,128,-168250,-9085,4115501
1756899742.8370264,1.3028993606567383,128,-168135,-9050,4115533
1756899742.8370264,1.3028993606567383,128,-168060,-8835,4115565
1756899742.8370264,1.3028993606567383,128,-168000,-8390,4115597
1756899742.8370264,1.3028993606567383,128,-168145,-8190,4115629
1756899742.8380265,1.3038995265960693,128,-167935,-7630,4115661
1756899742.8380265,1.3038995265960693,128,-168030,-7125,4115693
1756899742.8390262,1.3048992156982422,128,-167840,-7010,4115725
1756899742.8390262,1.3048992156982422,128,-167895,-7005,4115757
1756899742.8390262,1.3048992156982422,128,-168040,-6765,4115789
1756899742.8390262,1.3048992156982422,128,-167940,-6485,4115821
1756899742.8400269,1.3058998584747314,128,-168020,-6350,4115853
1756899742.8410275,1.3069005012512207,128,-167880,-6755,4115885
1756899742.8410275,1.3069005012512207,128,-168240,-8885,4115917
1756899742.8410275,1.3069005012512207,128,-168170,-10000,4115949
1756899742.8410275,1.3069005012512207,128,-168310,-9320,4115981
1756899742.8410275,1.3069005012512207,128,-168190,-9060,4116013
1756899742.8410275,1.3069005012512207,128,-168225,-9205,4116045
1756899742.8410275,1.3069005012512207,128,-168195,-9145,4116077
1756899742.84505,1.3109230995178223,128,-168220,-9020,4116109
1756899742.8500478,1.3159208297729492,128,-168105,-9075,4116141
1756899742.851048,1.3169209957122803,128,-168150,-8880,4116173
1756899742.8525507,1.3184237480163574,128,-168190,-8790,4116205
1756899742.8535547,1.319427728652954,128,-168185,-8590,4116237
1756899742.8545537,1.3204267024993896,128,-167975,-8315,4116269
1756899742.8545537,1.3204267024993896,128,-168290,-8365,4116301
1756899742.8575566,1.3234295845031738,128,-168205,-8095,4116333
1756899742.8575566,1.3234295845031738,128,-168135,-7965,4116365
1756899742.8585563,1.3244292736053467,128,-168170,-7920,4116397
1756899742.860557,1.326430082321167,128,-168195,-7625,4116429
1756899742.860557,1.326430082321167,128,-168095,-7720,4116461
1756899742.8615565,1.3274295330047607,128,-168410,-7605,4116493
1756899742.8615565,1.3274295330047607,128,-168320,-7685,4116525
1756899742.8630605,1.3289334774017334,128,-168185,-8060,4116557
1756899742.8630605,1.3289334774017334,128,-168395,-8295,4116589
1756899742.8630605,1.3289334774017334,128,-168465,-8355,4116621
1756899742.8640652,1.3299381732940674,128,-168455,-8730,4116653
1756899742.8640652,1.3299381732940674,128,-168510,-8855,4116685
1756899742.8650699,1.3309428691864014,128,-168505,-8930,4116717
1756899742.8650699,1.3309428691864014,128,-168470,-8870,4116749
1756899742.8660696,1.3319425582885742,128,-168455,-8785,4116781
1756899742.867069,1.332942008972168,128,-168455,-8745,4116813
1756899742.867069,1.332942008972168,128,-168680,-8815,4116845
1756899742.8710687,1.3369417190551758,128,-168565,-8550,4116877
1756899742.8710687,1.3369417190551758,128,-168645,-8410,4116909
1756899742.8710687,1.3369417190551758,128,-168795,-8045,4116941
1756899742.8735764,1.339449405670166,128,-168485,-7795,4116973
1756899742.8735764,1.339449405670166,128,-168620,-7635,4117005
1756899742.874576,1.3404490947723389,128,-168730,-7500,4117037
1756899742.874576,1.3404490947723389,128,-168590,-7620,4117069
1756899742.874576,1.3404490947723389,128,-168540,-7690,4117101
1756899742.8775797,1.3434526920318604,128,-168370,-7755,4117133
1756899742.8775797,1.3434526920318604,128,-168425,-7815,4117165
1756899742.878582,1.3444550037384033,128,-168550,-8040,4117197
1756899742.878582,1.3444550037384033,128,-168450,-8045,4117229
1756899742.878582,1.3444550037384033,128,-168510,-8180,4117261
1756899742.8795807,1.3454537391662598,128,-168575,-8370,4117293
1756899742.8795807,1.3454537391662598,128,-168740,-8645,4117325
1756899742.8805802,1.3464531898498535,128,-168775,-8995,4117357
1756899742.8805802,1.3464531898498535,128,-168705,-8970,4117389
1756899742.8805802,1.3464531898498535,128,-168755,-9030,4117421
1756899742.8805802,1.3464531898498535,128,-168725,-9005,4117453
1756899742.8805802,1.3464531898498535,128,-168865,-8835,4117485
1756899742.881579,1.34745192527771,128,-168745,-8380,4117517
1756899742.8825808,1.3484537601470947,128,-168730,-7900,4117549
1756899742.8825808,1.3484537601470947,128,-168770,-7460,4117581
1756899742.8860931,1.351966142654419,128,-168725,-7185,4117613
1756899742.8915987,1.3574717044830322,128,-168710,-6730,4117645
1756899742.8925989,1.3584718704223633,128,-168775,-6560,4117677
1756899742.8931012,1.3589742183685303,128,-168855,-6490,4117709
1756899742.8941061,1.3599791526794434,128,-168750,-6485,4117741
1756899742.8941061,1.3599791526794434,128,-169000,-8550,4117773
1756899742.8961105,1.3619835376739502,128,-168925,-9715,4117805
1756899742.8961105,1.3619835376739502,128,-168945,-8435,4117837
1756899742.8991094,1.3649823665618896,128,-169015,-8135,4117869
1756899742.8991094,1.3649823665618896,128,-168915,-8060,4117901
1756899742.9011102,1.36698317527771,128,-168695,-8105,4117933
1756899742.9011102,1.36698317527771,128,-168995,-8465,4117965
1756899742.9026134,1.3684864044189453,128,-168845,-8860,4117997
1756899742.9026134,1.3684864044189453,128,-168945,-9140,4118029
1756899742.903618,1.3694911003112793,128,-168820,-9315,4118061
1756899742.903618,1.3694911003112793,128,-168775,-9185,4118093
1756899742.9046166,1.3704895973205566,128,-168685,-9265,4118125
1756899742.9046166,1.3704895973205566,128,-168550,-9130,4118157
1756899742.9056196,1.371492624282837,128,-168620,-8735,4118189
1756899742.9056196,1.371492624282837,128,-168540,-8455,4118221
1756899742.9066198,1.372492790222168,128,-168560,-8695,4118253
1756899742.9066198,1.372492790222168,128,-168840,-8430,4118285
1756899742.9076192,1.3734922409057617,128,-168870,-8510,4118317
1756899742.9076192,1.3734922409057617,128,-168945,-8500,4118349
1756899742.9086194,1.3744924068450928,128,-168765,-7285,4118381
1756899742.9086194,1.3744924068450928,128,-168765,-7565,4118413
1756899742.9116204,1.3774933815002441,128,-168745,-8030,4118445
1756899742.9126208,1.3784937858581543,128,-168715,-7775,4118477
1756899742.9126208,1.3784937858581543,128,-168890,-7270,4118509
1756899742.915132,1.381005048751831,128,-168805,-7265,4118541
1756899742.915132,1.381005048751831,128,-168695,-7495,4118573
1756899742.9161325,1.3820054531097412,128,-168815,-8125,4118605
1756899742.9161325,1.3820054531097412,128,-168625,-8190,4118637
1756899742.9161325,1.3820054531097412,128,-168820,-8340,4118669
1756899742.9191313,1.3850042819976807,128,-168815,-8605,4118701
1756899742.9191313,1.3850042819976807,128,-168740,-8220,4118733
1756899742.9201317,1.3860046863555908,128,-168945,-7860,4118765
1756899742.9201317,1.3860046863555908,128,-168950,-7850,4118797
1756899742.9201317,1.3860046863555908,128,-169135,-7580,4118829
1756899742.9201317,1.3860046863555908,128,-169095,-7145,4118861
1756899742.9211318,1.3870048522949219,128,-168870,-6910,4118893
1756899742.9211318,1.3870048522949219,128,-168695,-6680,4118925
1756899742.9211318,1.3870048522949219,128,-168635,-6645,4118957
1756899742.9211318,1.3870048522949219,128,-168510,-9140,4118989
1756899742.922634,1.3885068893432617,128,-168690,-8650,4119021
1756899742.922634,1.3885068893432617,128,-168745,-7590,4119053
1756899742.9236393,1.389512300491333,128,-168495,-7510,4119085
1756899742.9236393,1.389512300491333,128,-168760,-7775,4119117
1756899742.9236393,1.389512300491333,128,-168605,-8220,4119149
1756899742.9246387,1.3905117511749268,128,-168940,-8745,4119181
1756899742.9246387,1.3905117511749268,128,-169030,-8880,4119213
1756899742.9246387,1.3905117511749268,128,-168990,-9085,4119245
1756899742.9246387,1.3905117511749268,128,-169025,-9785,4119277
1756899742.9431574,1.4090304374694824,128,-168730,-9870,4119309
1756899742.9461663,1.4120392799377441,128,-168755,-9430,4119341
1756899742.9461663,1.4120392799377441,128,-168725,-8525,4119373
1756899742.9461663,1.4120392799377441,128,-168900,-8130,4119405
1756899742.9471657,1.413038730621338,128,-168605,-7300,4119437
1756899742.9481661,1.414039134979248,128,-168750,-5870,4119469
1756899742.9481661,1.414039134979248,128,-169180,-5390,4119501
1756899742.9491658,1.415038824081421,128,-169130,-5375,4119533
1756899742.9491658,1.415038824081421,128,-169075,-5095,4119565
1756899742.9491658,1.415038824081421,128,-169050,-5285,4119597
1756899742.950165,1.4160380363464355,128,-169060,-5110,4119629
1756899742.950165,1.4160380363464355,128,-169100,-4885,4119661
1756899742.951165,1.4170379638671875,128,-169000,-6795,4119693
1756899742.951165,1.4170379638671875,128,-169300,-10680,4119725
1756899742.9526675,1.4185404777526855,128,-169330,-8415,4119757
1756899742.9526675,1.4185404777526855,128,-169345,-6850,4119789
1756899742.9556746,1.4215476512908936,128,-169330,-6835,4119821
1756899742.956675,1.4225480556488037,128,-169195,-7450,4119853
1756899742.956675,1.4225480556488037,128,-169190,-9595,4119885
1756899742.9596746,1.4255475997924805,128,-169185,-11695,4119917
1756899742.9596746,1.4255475997924805,128,-169315,-10875,4119949
1756899742.9596746,1.4255475997924805,128,-169080,-10370,4119981
1756899742.9596746,1.4255475997924805,128,-169245,-10645,4120013
1756899742.9631796,1.4290525913238525,128,-169020,-10155,4120045
1756899742.9631796,1.4290525913238525,128,-168975,-8355,4120077
1756899742.9631796,1.4290525913238525,128,-168895,-9310,4120109
1756899742.9641843,1.4300572872161865,128,-168750,-9535,4120141
1756899742.9641843,1.4300572872161865,128,-168790,-9525,4120173
1756899742.9641843,1.4300572872161865,128,-168985,-9155,4120205
1756899742.9641843,1.4300572872161865,128,-168920,-8000,4120237
1756899742.9651883,1.4310612678527832,128,-168960,-8245,4120269
1756899742.9651883,1.4310612678527832,128,-169160,-8455,4120301
1756899742.9661875,1.4320604801177979,128,-169035,-8360,4120333
1756899742.9661875,1.4320604801177979,128,-168935,-8430,4120365
1756899742.9661875,1.4320604801177979,128,-168910,-8510,4120397
1756899742.974735,1.440608024597168,128,-168720,-8485,4120429
1756899742.974735,1.440608024597168,128,-168805,-8440,4120461
1756899742.974735,1.440608024597168,128,-168860,-8730,4120493
1756899742.974735,1.440608024597168,128,-169070,-9195,4120525
1756899742.974735,1.440608024597168,128,-169180,-9280,4120557
1756899742.974735,1.440608024597168,128,-169275,-8330,4120589
1756899742.9882543,1.454127311706543,128,-169495,-8205,4120621
1756899742.9882543,1.454127311706543,128,-169400,-8250,4120653
1756899742.989254,1.4551270008087158,128,-169745,-8005,4120685
1756899742.9902556,1.4561285972595215,128,-169950,-6825,4120717
1756899742.991254,1.4571270942687988,128,-169740,-6780,4120749
1756899742.991254,1.4571270942687988,128,-169705,-8625,4120781
1756899742.992757,1.458630084991455,128,-169700,-13405,4120813
1756899742.9937623,1.4596352577209473,128,-169625,-13445,4120845
1756899742.9947603,1.4606332778930664,128,-169140,-10975,4120877
1756899742.9977643,1.463637351989746,128,-169010,-9335,4120909
1756899742.9977643,1.463637351989746,128,-168935,-8955,4120941
1756899742.9997635,1.4656364917755127,128,-168870,-8095,4120973
1756899743.0007634,1.4666364192962646,128,-168810,-7515,4121005
1756899743.0017636,1.4676365852355957,128,-169120,-8400,4121037
1756899743.0017636,1.4676365852355957,128,-169300,-8730,4121069
1756899743.0017636,1.4676365852355957,128,-169260,-9085,4121101
1756899743.0027633,1.4686362743377686,128,-169375,-9455,4121133
1756899743.0027633,1.4686362743377686,128,-169430,-9655,4121165
1756899743.0032656,1.4691386222839355,128,-169605,-10200,4121197
1756899743.0032656,1.4691386222839355,128,-169495,-11125,4121229
1756899743.0042708,1.4701437950134277,128,-169505,-10490,4121261
1756899743.0042708,1.4701437950134277,128,-169380,-11135,4121293
1756899743.0052743,1.4711472988128662,128,-169380,-11420,4121325
1756899743.0052743,1.4711472988128662,128,-169335,-12030,4121357
1756899743.006274,1.472146987915039,128,-169375,-11365,4121389
1756899743.006274,1.472146987915039,128,-169510,-10540,4121421
1756899743.0102737,1.4761466979980469,128,-169405,-10470,4121453
1756899743.0102737,1.4761466979980469,128,-169340,-10030,4121485
1756899743.0102737,1.4761466979980469,128,-169455,-9755,4121517
1756899743.0137846,1.4796576499938965,128,-169375,-9740,4121549
1756899743.0137846,1.4796576499938965,128,-169310,-9795,4121581
1756899743.0137846,1.4796576499938965,128,-169220,-9555,4121613
1756899743.0147831,1.4806561470031738,128,-169235,-9490,4121645
1756899743.0147831,1.4806561470031738,128,-169405,-9715,4121677
1756899743.0177872,1.4836602210998535,128,-169220,-9890,4121709
1756899743.0177872,1.4836602210998535,128,-169450,-9910,4121741
1756899743.0177872,1.4836602210998535,128,-169310,-10230,4121773
1756899743.0177872,1.4836602210998535,128,-169415,-10335,4121805
1756899743.018787,1.4846599102020264,128,-169445,-10525,4121837
1756899743.018787,1.4846599102020264,128,-169705,-10600,4121869
1756899743.0197868,1.4856598377227783,128,-169445,-10885,4121901
1756899743.0197868,1.4856598377227783,128,-169580,-11260,4121933
1756899743.0197868,1.4856598377227783,128,-169485,-11655,4121965
1756899743.0197868,1.4856598377227783,128,-169590,-11720,4121997
1756899743.0207872,1.4866602420806885,128,-169575,-11855,4122029
1756899743.0207872,1.4866602420806885,128,-169690,-11810,4122061
1756899743.0207872,1.4866602420806885,128,-169610,-11610,4122093
1756899743.0217874,1.4876604080200195,128,-169700,-11430,4122125
1756899743.0217874,1.4876604080200195,128,-169640,-11205,4122157
1756899743.0217874,1.4876604080200195,128,-169800,-10865,4122189
1756899743.0217874,1.4876604080200195,128,-169795,-10720,4122221
1756899743.0227876,1.4886605739593506,128,-169875,-10705,4122253
1756899743.0227876,1.4886605739593506,128,-169755,-10665,4122285
1756899743.0227876,1.4886605739593506,128,-169625,-10545,4122317
1756899743.0232906,1.4891636371612549,128,-169790,-10640,4122349
1756899743.031299,1.4971721172332764,128,-169705,-10780,4122381
1756899743.0322986,1.4981715679168701,128,-169730,-11005,4122413
1756899743.032801,1.498673915863037,128,-169640,-11110,4122445
1756899743.0338063,1.4996793270111084,128,-169900,-11230,4122477
1756899743.0348053,1.500678300857544,128,-169980,-11585,4122509
1756899743.0358088,1.5016818046569824,128,-169860,-11810,4122541
1756899743.0368083,1.5026812553405762,128,-170395,-11770,4122573
1756899743.039808,1.505681037902832,128,-171825,-12225,4122605
1756899743.052327,1.5181999206542969,128,-172045,-12335,4122637
1756899743.052327,1.5181999206542969,128,-172025,-12525,4122669
1756899743.052327,1.5181999206542969,128,-172380,-12360,4122701
1756899743.052327,1.5181999206542969,128,-172940,-12380,4122733
1756899743.0533302,1.5192031860351562,128,-172615,-12145,4122765
1756899743.0563352,1.5222082138061523,128,-172180,-12075,4122797
1756899743.0563352,1.5222082138061523,128,-171900,-11735,4122829
1756899743.0789015,1.5447745323181152,128,-172135,-11835,4122861
1756899743.079901,1.545773983001709,128,-172115,-11605,4122893
1756899743.0809011,1.54677414894104,128,-171875,-11505,4122925
1756899743.082405,1.5482780933380127,128,-171885,-11430,4122957
1756899743.0834105,1.549283504486084,128,-172170,-11600,4122989
1756899743.0969238,1.5627968311309814,128,-172230,-11555,4123021
1756899743.0969238,1.5627968311309814,128,-172590,-11975,4123053
1756899743.0999238,1.5657968521118164,128,-177165,-12260,4123085
1756899743.0999238,1.5657968521118164,128,-180140,-12370,4123117
1756899743.0999238,1.5657968521118164,128,-180205,-12450,4123149
1756899743.1009228,1.566795825958252,128,-179070,-12805,4123181
1756899743.1034296,1.5693025588989258,128,-178010,-12870,4123213
1756899743.1034296,1.5693025588989258,128,-176470,-12985,4123245
1756899743.1034296,1.5693025588989258,128,-174465,-13170,4123277
1756899743.1044314,1.5703043937683105,128,-173220,-13435,4123309
1756899743.1044314,1.5703043937683105,128,-174205,-13460,4123341
1756899743.1044314,1.5703043937683105,128,-176070,-13405,4123373
1756899743.1044314,1.5703043937683105,128,-175100,-13470,4123405
1756899743.1054342,1.5713071823120117,128,-173845,-13335,4123437
1756899743.1054342,1.5713071823120117,128,-172775,-13375,4123469
1756899743.1064343,1.5723073482513428,128,-170425,-13085,4123501
1756899743.1064343,1.5723073482513428,128,-168190,-12870,4123533
1756899743.1064343,1.5723073482513428,128,-168035,-12140,4123565
1756899743.1064343,1.5723073482513428,128,-167330,-11630,4123597
1756899743.1084352,1.574308156967163,128,-166445,-11280,4123629
1756899743.1084352,1.574308156967163,128,-165150,-11545,4123661
1756899743.1084352,1.574308156967163,128,-164095,-11735,4123693
1756899743.1084352,1.574308156967163,128,-164280,-11905,4123725
1756899743.1084352,1.574308156967163,128,-164670,-12150,4123757
1756899743.1084352,1.574308156967163,128,-165475,-12260,4123789
1756899743.1084352,1.574308156967163,128,-170350,-12620,4123821
1756899743.1094348,1.575307846069336,128,-176135,-12685,4123853
1756899743.1094348,1.575307846069336,128,-178005,-12515,4123885
1756899743.1094348,1.575307846069336,128,-178505,-12540,4123917
1756899743.1094348,1.575307846069336,128,-176855,-12525,4123949
1756899743.1094348,1.575307846069336,128,-174680,-12550,4123981
1756899743.1094348,1.575307846069336,128,-174130,-12430,4124013
1756899743.1094348,1.575307846069336,128,-173155,-12455,4124045
1756899743.1094348,1.575307846069336,128,-173455,-12410,4124077
1756899743.1094348,1.575307846069336,128,-173400,-12355,4124109
1756899743.112436,1.5783090591430664,128,-172620,-11990,4124141
1756899743.112436,1.5783090591430664,128,-171795,-11790,4124173
1756899743.112436,1.5783090591430664,128,-169890,-11595,4124205
1756899743.1129396,1.578812599182129,128,-169185,-11705,4124237
1756899743.1129396,1.578812599182129,128,-168875,-11605,4124269
1756899743.1129396,1.578812599182129,128,-168760,-11500,4124301
1756899743.1129396,1.578812599182129,128,-169060,-11425,4124333
1756899743.1129396,1.578812599182129,128,-167650,-11440,4124365
1756899743.1129396,1.578812599182129,128,-165940,-11700,4124397
1756899743.1129396,1.578812599182129,128,-165440,-11955,4124429
1756899743.1129396,1.578812599182129,128,-164745,-12205,4124461
1756899743.1129396,1.578812599182129,128,-165445,-12515,4124493
1756899743.1149464,1.5808193683624268,128,-166810,-12570,4124525
1756899743.1189508,1.5848238468170166,128,-167645,-12900,4124557
1756899743.126463,1.5923359394073486,128,-167595,-13190,4124589
1756899743.1274629,1.5933358669281006,128,-168005,-13245,4124621
1756899743.128464,1.594336986541748,128,-168600,-13080,4124653
1756899743.1294646,1.5953376293182373,128,-169265,-13130,4124685
1756899743.1304631,1.5963361263275146,128,-171380,-12975,4124717
1756899743.1314652,1.5973381996154785,128,-172915,-12540,4124749
1756899743.1329675,1.5988404750823975,128,-174320,-12305,4124781
1756899743.1339736,1.599846601486206,128,-176310,-12195,4124813
1756899743.1369748,1.6028478145599365,128,-176735,-11905,4124845
1756899743.1369748,1.6028478145599365,128,-176875,-11915,4124877
1756899743.1389744,1.6048474311828613,128,-175915,-11535,4124909
1756899743.139975,1.6058480739593506,128,-174660,-11410,4124941
1756899743.139975,1.6058480739593506,128,-173635,-11345,4124973
1756899743.1409745,1.6068475246429443,128,-173575,-11115,4125005
1756899743.1409745,1.6068475246429443,128,-171430,-11085,4125037
1756899743.1414773,1.6073503494262695,128,-169350,-11425,4125069
1756899743.1414773,1.6073503494262695,128,-168790,-11590,4125101
1756899743.1424804,1.6083533763885498,128,-167765,-11755,4125133
1756899743.1424804,1.6083533763885498,128,-167780,-12125,4125165
1756899743.1434836,1.6093566417694092,128,-166245,-12425,4125197
1756899743.1434836,1.6093566417694092,128,-165445,-12390,4125229
1756899743.1444843,1.6103572845458984,128,-165480,-12595,4125261
1756899743.1444843,1.6103572845458984,128,-165600,-12770,4125293
1756899743.14549,1.6113629341125488,128,-165265,-12765,4125325
1756899743.1464884,1.6123614311218262,128,-165370,-12300,4125357
1756899743.1494877,1.6153607368469238,128,-164640,-12060,4125389
1756899743.1494877,1.6153607368469238,128,-164915,-11980,4125421
1756899743.150488,1.6163609027862549,128,-165585,-11600,4125453
1756899743.1529894,1.6188623905181885,128,-166310,-11680,4125485
1756899743.1529894,1.6188623905181885,128,-165955,-11480,4125517
1756899743.1529894,1.6188623905181885,128,-165235,-11240,4125549
1756899743.1539943,1.6198673248291016,128,-169055,-11325,4125581
1756899743.1539943,1.6198673248291016,128,-170190,-11020,4125613
1756899743.1569972,1.6228702068328857,128,-170020,-11000,4125645
1756899743.1569972,1.6228702068328857,128,-169625,-10970,4125677
1756899743.1569972,1.6228702068328857,128,-169700,-11305,4125709
1756899743.1579971,1.6238701343536377,128,-170035,-11505,4125741
1756899743.1579971,1.6238701343536377,128,-171855,-12035,4125773
1756899743.1579971,1.6238701343536377,128,-173210,-12280,4125805
1756899743.158997,1.6248700618743896,128,-172835,-12420,4125837
1756899743.158997,1.6248700618743896,128,-171450,-12950,4125869
1756899743.158997,1.6248700618743896,128,-170040,-13130,4125901
1756899743.159998,1.625870943069458,128,-168970,-13480,4125933
1756899743.159998,1.625870943069458,128,-170705,-13545,4125965
1756899743.159998,1.625870943069458,128,-170375,-13345,4125997
1756899743.159998,1.625870943069458,128,-169605,-13105,4126029
1756899743.1609974,1.6268703937530518,128,-167660,-12965,4126061
1756899743.1609974,1.6268703937530518,128,-166510,-12870,4126093
1756899743.1609974,1.6268703937530518,128,-165910,-12840,4126125
1756899743.1609974,1.6268703937530518,128,-165195,-12590,4126157
1756899743.1609974,1.6268703937530518,128,-166175,-12090,4126189
1756899743.1626036,1.628476619720459,128,-167285,-12110,4126221
1756899743.1626036,1.628476619720459,128,-167855,-11730,4126253
1756899743.1626036,1.628476619720459,128,-168110,-11785,4126285
1756899743.1626036,1.628476619720459,128,-167895,-11820,4126317
1756899743.1626036,1.628476619720459,128,-168320,-12045,4126349
1756899743.1716065,1.637479543685913,128,-168660,-12165,4126381
1756899743.1716065,1.637479543685913,128,-169585,-12350,4126413
1756899743.1726072,1.6384801864624023,128,-169600,-12690,4126445
1756899743.1731102,1.6389832496643066,128,-169200,-12995,4126477
1756899743.1741154,1.6399884223937988,128,-168890,-13045,4126509
1756899743.175119,1.6409919261932373,128,-168645,-13380,4126541
1756899743.176118,1.6419909000396729,128,-167990,-13665,4126573
1756899743.176118,1.6419909000396729,128,-166745,-13675,4126605
1756899743.1771188,1.6429917812347412,128,-165515,-13750,4126637
1756899743.1791208,1.644993782043457,128,-164095,-13785,4126669
1756899743.1811182,1.64699125289917,128,-167835,-13705,4126701
1756899743.1811182,1.64699125289917,128,-170730,-13275,4126733
1756899743.1846242,1.6504971981048584,128,-177070,-12855,4126765
1756899743.1846242,1.6504971981048584,128,-179890,-12350,4126797
1756899743.1856277,1.6515007019042969,128,-178555,-12470,4126829
1756899743.1856277,1.6515007019042969,128,-178250,-12775,4126861
1756899743.186628,1.652501106262207,128,-177980,-12410,4126893
1756899743.186628,1.652501106262207,128,-177525,-11840,4126925
1756899743.186628,1.652501106262207,128,-174535,-11950,4126957
1756899743.1876278,1.6535007953643799,128,-170830,-11970,4126989
1756899743.188627,1.6545000076293945,128,-168440,-12020,4127021
1756899743.1891296,1.6550025939941406,128,-170455,-12635,4127053
1756899743.190133,1.656006097793579,128,-170050,-13025,4127085
1756899743.190133,1.656006097793579,128,-169820,-13190,4127117
1756899743.190133,1.656006097793579,128,-167905,-13325,4127149
1756899743.1911323,1.6570053100585938,128,-164395,-13310,4127181
1756899743.1946394,1.6605124473571777,128,-162115,-13345,4127213
1756899743.1946394,1.6605124473571777,128,-159810,-13340,4127245
1756899743.1946394,1.6605124473571777,128,-156690,-13555,4127277
1756899743.1956437,1.6615166664123535,128,-155485,-13500,4127309
1756899743.1986423,1.6645152568817139,128,-155390,-13425,4127341
1756899743.1986423,1.6645152568817139,128,-155345,-13340,4127373
1756899743.1986423,1.6645152568817139,128,-157875,-13265,4127405
1756899743.1986423,1.6645152568817139,128,-160235,-12995,4127437
1756899743.1996424,1.665515422821045,128,-161780,-12540,4127469
1756899743.2026424,1.6685154438018799,128,-164980,-12485,4127501
1756899743.2026424,1.6685154438018799,128,-167785,-12755,4127533
1756899743.2031455,1.6690185070037842,128,-169040,-12970,4127565
1756899743.2031455,1.6690185070037842,128,-170075,-13505,4127597
1756899743.2031455,1.6690185070037842,128,-171695,-13920,4127629
1756899743.2031455,1.6690185070037842,128,-172780,-14275,4127661
1756899743.2041502,1.6700232028961182,128,-172355,-14350,4127693
1756899743.2041502,1.6700232028961182,128,-171590,-14465,4127725
1756899743.2051544,1.671027421951294,128,-170840,-14655,4127757
1756899743.2051544,1.671027421951294,128,-170220,-14550,4127789
1756899743.2051544,1.671027421951294,128,-168785,-14535,4127821
1756899743.2051544,1.671027421951294,128,-167870,-14285,4127853
1756899743.2061536,1.6720266342163086,128,-167885,-13485,4127885
1756899743.207155,1.6730279922485352,128,-167385,-13035,4127917
1756899743.207155,1.6730279922485352,128,-165820,-12650,4127949
1756899743.207155,1.6730279922485352,128,-163485,-12275,4127981
1756899743.207155,1.6730279922485352,128,-164120,-12200,4128013
1756899743.207155,1.6730279922485352,128,-166740,-11920,4128045
1756899743.2081544,1.674027442932129,128,-167130,-11375,4128077
1756899743.2081544,1.674027442932129,128,-166110,-11135,4128109
1756899743.2081544,1.674027442932129,128,-166170,-11435,4128141
1756899743.2081544,1.674027442932129,128,-166930,-11230,4128173
1756899743.2081544,1.674027442932129,128,-170165,-11270,4128205
1756899743.2081544,1.674027442932129,128,-182465,-11825,4128237
1756899743.2081544,1.674027442932129,128,-198390,-12195,4128269
1756899743.2081544,1.674027442932129,128,-200890,-12205,4128301
1756899743.2081544,1.674027442932129,128,-200020,-12490,4128333
1756899743.2081544,1.674027442932129,128,-196370,-12540,4128365
1756899743.2091546,1.67502760887146,128,-191860,-13065,4128397
1756899743.211154,1.6770269870758057,128,-187815,-13560,4128429
1756899743.211154,1.6770269870758057,128,-184250,-14015,4128461
1756899743.2166667,1.682539701461792,128,-180375,-14525,4128493
1756899743.217666,1.6835389137268066,128,-175310,-14785,4128525
1756899743.2186658,1.6845388412475586,128,-170975,-15120,4128557
1756899743.2196658,1.6855387687683105,128,-167630,-14865,4128589
1756899743.2206657,1.6865386962890625,128,-164855,-14195,4128621
1756899743.2206657,1.6865386962890625,128,-161420,-13290,4128653
1756899743.2216656,1.6875386238098145,128,-159315,-12465,4128685
1756899743.2226665,1.6885395050048828,128,-155105,-12185,4128717
1756899743.223169,1.689042091369629,128,-150355,-11940,4128749
1756899743.2261775,1.6920504570007324,128,-151035,-11895,4128781
1756899743.2261775,1.6920504570007324,128,-155990,-12260,4128813
1756899743.2291787,1.695051670074463,128,-160280,-12390,4128845
1756899743.2291787,1.695051670074463,128,-161600,-12165,4128877
1756899743.2301784,1.6960513591766357,128,-162470,-12135,4128909
1756899743.2301784,1.6960513591766357,128,-162820,-12235,4128941
1756899743.2311785,1.6970515251159668,128,-162795,-12665,4128973
1756899743.2311785,1.6970515251159668,128,-161740,-12325,4129005
1756899743.2311785,1.6970515251159668,128,-160310,-11930,4129037
1756899743.2311785,1.6970515251159668,128,-160250,-12075,4129069
1756899743.2326815,1.698554515838623,128,-159365,-12445,4129101
1756899743.235189,1.7010619640350342,128,-156920,-12580,4129133
1756899743.235189,1.7010619640350342,128,-156515,-12485,4129165
1756899743.2361927,1.7020657062530518,128,-158950,-12450,4129197
1756899743.2391925,1.7050654888153076,128,-161075,-12140,4129229
1756899743.2391925,1.7050654888153076,128,-161845,-12060,4129261
1756899743.2391925,1.7050654888153076,128,-162220,-11705,4129293
1756899743.2391925,1.7050654888153076,128,-163380,-11585,4129325
1756899743.2401927,1.7060656547546387,128,-164060,-11295,4129357
1756899743.2426968,1.7085697650909424,128,-164230,-11235,4129389
1756899743.2426968,1.7085697650909424,128,-163585,-10990,4129421
1756899743.2426968,1.7085697650909424,128,-163250,-11075,4129453
1756899743.243702,1.7095749378204346,128,-164485,-11060,4129485
1756899743.243702,1.7095749378204346,128,-164630,-11420,4129517
1756899743.243702,1.7095749378204346,128,-164210,-11640,4129549
1756899743.2447007,1.710573673248291,128,-173070,-12280,4129581
1756899743.2447007,1.710573673248291,128,-179145,-12850,4129613
1756899743.2457051,1.711578130722046,128,-178525,-13130,4129645
1756899743.2457051,1.711578130722046,128,-178150,-13255,4129677
1756899743.2457051,1.711578130722046,128,-181925,-13995,4129709
1756899743.2457051,1.711578130722046,128,-188565,-14245,4129741
1756899743.2467048,1.7125778198242188,128,-189465,-14680,4129773
1756899743.247705,1.7135779857635498,128,-187925,-15170,4129805
1756899743.247705,1.7135779857635498,128,-184125,-15840,4129837
1756899743.247705,1.7135779857635498,128,-178535,-15575,4129869
1756899743.2497036,1.7155766487121582,128,-173170,-15350,4129901
1756899743.2497036,1.7155766487121582,128,-168990,-15115,4129933
1756899743.2497036,1.7155766487121582,128,-167815,-13875,4129965
1756899743.2497036,1.7155766487121582,128,-167265,-12525,4129997
1756899743.2497036,1.7155766487121582,128,-163790,-12125,4130029
1756899743.2497036,1.7155766487121582,128,-159400,-12245,4130061
1756899743.2627742,1.728647232055664,128,-157725,-11525,4130093
1756899743.2637806,1.7296535968780518,128,-155790,-11350,4130125
1756899743.264779,1.730652093887329,128,-151075,-11000,4130157
1756899743.2657816,1.7316546440124512,128,-147635,-10940,4130189
1756899743.2667818,1.7326548099517822,128,-148400,-11520,4130221
1756899743.267782,1.7336549758911133,128,-149530,-11720,4130253
1756899743.2899756,1.7558486461639404,128,-161110,-11445,4130285
1756899743.2899756,1.7558486461639404,128,-169180,-11120,4130317
1756899743.2899756,1.7558486461639404,128,-172865,-11550,4130349
1756899743.2899756,1.7558486461639404,128,-174695,-11825,4130381
1756899743.2899756,1.7558486461639404,128,-175855,-12370,4130413
1756899743.2899756,1.7558486461639404,128,-174675,-12920,4130445
1756899743.2899756,1.7558486461639404,128,-172240,-13185,4130477
1756899743.2899756,1.7558486461639404,128,-173160,-13075,4130509
1756899743.2909682,1.7568411827087402,128,-175975,-13000,4130541
1756899743.2909682,1.7568411827087402,128,-172525,-12750,4130573
1756899743.2909682,1.7568411827087402,128,-172630,-13050,4130605
1756899743.2909682,1.7568411827087402,128,-173360,-12650,4130637
1756899743.2944949,1.7603678703308105,128,-172210,-12170,4130669
1756899743.2944949,1.7603678703308105,128,-171840,-11975,4130701
1756899743.2944949,1.7603678703308105,128,-171855,-12085,4130733
1756899743.2944949,1.7603678703308105,128,-175400,-12015,4130765
1756899743.2944949,1.7603678703308105,128,-176135,-11800,4130797
1756899743.2944949,1.7603678703308105,128,-175280,-11930,4130829
1756899743.2969959,1.762868881225586,128,-175110,-12030,4130861
1756899743.2969959,1.762868881225586,128,-175480,-11940,4130893
1756899743.2969959,1.762868881225586,128,-172880,-12245,4130925
1756899743.2980065,1.7638795375823975,128,-170420,-12010,4130957
1756899743.2980065,1.7638795375823975,128,-187000,-11675,4130989
1756899743.2980065,1.7638795375823975,128,-203375,-11135,4131021
1756899743.2990139,1.7648868560791016,128,-211745,-10930,4131053
1756899743.3000064,1.7658793926239014,128,-214450,-10580,4131085
1756899743.3000064,1.7658793926239014,128,-213335,-10685,4131117
1756899743.3000064,1.7658793926239014,128,-209495,-10835,4131149
1756899743.3000064,1.7658793926239014,128,-202730,-11045,4131181
1756899743.309545,1.7754180431365967,128,-197725,-10770,4131213
1756899743.3105435,1.776416540145874,128,-194495,-11015,4131245
1756899743.3115444,1.7774174213409424,128,-185735,-11090,4131277
1756899743.3125446,1.7784175872802734,128,-174740,-11080,4131309
1756899743.3130476,1.7789206504821777,128,-171540,-11070,4131341
1756899743.314053,1.779926061630249,128,-179940,-11230,4131373
1756899743.3150575,1.780930519104004,128,-179865,-11435,4131405
1756899743.3160565,1.7819294929504395,128,-181075,-12365,4131437
1756899743.3190577,1.78493070602417,128,-196190,-12495,4131469
1756899743.3200572,1.7859301567077637,128,-196265,-12265,4131501
1756899743.3200572,1.7859301567077637,128,-196065,-11900,4131533
1756899743.3210566,1.7869296073913574,128,-193060,-11595,4131565
1756899743.3225598,1.7884328365325928,128,-191010,-12285,4131597
1756899743.3225598,1.7884328365325928,128,-194650,-13265,4131629
1756899743.323565,1.789438009262085,128,-199735,-13950,4131661
1756899743.323565,1.789438009262085,128,-194430,-14070,4131693
1756899743.3245645,1.7904374599456787,128,-186505,-14010,4131725
1756899743.3245645,1.7904374599456787,128,-182940,-13695,4131757
1756899743.3255672,1.7914402484893799,128,-175890,-13335,4131789
1756899743.3255672,1.7914402484893799,128,-163155,-12995,4131821
1756899743.3285694,1.7944424152374268,128,-155255,-12505,4131853
1756899743.3285694,1.7944424152374268,128,-144175,-12140,4131885
1756899743.3285694,1.7944424152374268,128,-135135,-10970,4131917
1756899743.3315685,1.7974414825439453,128,-131750,-10160,4131949
1756899743.3325672,1.7984402179718018,128,-125465,-8760,4131981
1756899743.3325672,1.7984402179718018,128,-123230,-7195,4132013
1756899743.3330698,1.7989428043365479,128,-127985,-5900,4132045
1756899743.3330698,1.7989428043365479,128,-138105,-4790,4132077
1756899743.336078,1.8019509315490723,128,-144740,-4565,4132109
1756899743.336078,1.8019509315490723,128,-148770,-4375,4132141
1756899743.336078,1.8019509315490723,128,-152575,-5130,4132173
1756899743.3370783,1.8029513359069824,128,-160315,-5940,4132205
1756899743.3370783,1.8029513359069824,128,-172885,-6955,4132237
1756899743.3370783,1.8029513359069824,128,-180120,-8520,4132269
1756899743.3380787,1.8039517402648926,128,-182285,-9100,4132301
1756899743.3380787,1.8039517402648926,128,-180755,-9750,4132333
1756899743.3380787,1.8039517402648926,128,-179380,-10185,4132365
1756899743.339079,1.8049519062042236,128,-177785,-10670,4132397
1756899743.339079,1.8049519062042236,128,-186445,-11000,4132429
1756899743.339079,1.8049519062042236,128,-187435,-10725,4132461
1756899743.3400826,1.8059556484222412,128,-185670,-11050,4132493
1756899743.341078,1.8069510459899902,128,-183715,-10935,4132525
1756899743.341078,1.8069510459899902,128,-185920,-10375,4132557
1756899743.341078,1.8069510459899902,128,-197960,-9400,4132589
1756899743.341078,1.8069510459899902,128,-211685,-9045,4132621
1756899743.341078,1.8069510459899902,128,-215165,-9085,4132653
1756899743.341078,1.8069510459899902,128,-211245,-8835,4132685
1756899743.341078,1.8069510459899902,128,-202125,-6645,4132717
1756899743.341078,1.8069510459899902,128,-197980,-4685,4132749
1756899743.341078,1.8069510459899902,128,-188755,-3730,4132781
1756899743.342582,1.808454990386963,128,-179035,-3350,4132813
1756899743.342582,1.808454990386963,128,-176800,-2140,4132845
1756899743.342582,1.808454990386963,128,-176865,-2010,4132877
1756899743.342582,1.808454990386963,128,-177100,-2170,4132909
1756899743.342582,1.808454990386963,128,-173215,-2170,4132941
1756899743.342582,1.808454990386963,128,-173210,-3650,4132973
1756899743.342582,1.808454990386963,128,-180905,-3255,4133005
1756899743.342582,1.808454990386963,128,-197820,-3955,4133037
1756899743.342582,1.808454990386963,128,-213120,-5435,4133069
1756899743.3460941,1.811967134475708,128,-220505,-7180,4133101
1756899743.3460941,1.811967134475708,128,-229940,-8005,4133133
1756899743.3460941,1.811967134475708,128,-232435,-8515,4133165
1756899743.3460941,1.811967134475708,128,-226730,-9885,4133197
1756899743.3460941,1.811967134475708,128,-221775,-10525,4133229
1756899743.3490932,1.8149662017822266,128,-216250,-9690,4133261
1756899743.3490932,1.8149662017822266,128,-202980,-9150,4133293
1756899743.3490932,1.8149662017822266,128,-184415,-8930,4133325
1756899743.3490932,1.8149662017822266,128,-168565,-8350,4133357
1756899743.3500938,1.8159668445587158,128,-156270,-7935,4133389
1756899743.3536031,1.8194761276245117,128,-141095,-7195,4133421
1756899743.3801434,1.8460164070129395,128,-149960,-5920,4133453
1756899743.3801434,1.8460164070129395,128,-161635,-4375,4133485
1756899743.3801434,1.8460164070129395,128,-168310,-2135,4133517
1756899743.3801434,1.8460164070129395,128,-184555,-1340,4133549
1756899743.3801434,1.8460164070129395,128,-179740,60,4133581
1756899743.3811429,1.8470158576965332,128,-178240,355,4133613
1756899743.3811429,1.8470158576965332,128,-165585,1040,4133645
1756899743.3826468,1.8485198020935059,128,-151655,2860,4133677
1756899743.3826468,1.8485198020935059,128,-147530,2005,4133709
1756899743.3826468,1.8485198020935059,128,-146025,750,4133741
1756899743.3826468,1.8485198020935059,128,-155325,-710,4133773
1756899743.3826468,1.8485198020935059,128,-192635,-480,4133805
1756899743.3846593,1.8505322933197021,128,-202690,-2330,4133837
1756899743.3846593,1.8505322933197021,128,-214245,-4505,4133869
1756899743.3846593,1.8505322933197021,128,-234180,-5620,4133901
1756899743.3846593,1.8505322933197021,128,-239550,-6105,4133933
1756899743.3846593,1.8505322933197021,128,-233130,-6120,4133965
1756899743.3866768,1.8525497913360596,128,-222305,-6795,4133997
1756899743.3866768,1.8525497913360596,128,-207195,-8130,4134029
1756899743.387667,1.8535399436950684,128,-203410,-6405,4134061
1756899743.387667,1.8535399436950684,128,-202430,-3090,4134093
1756899743.387667,1.8535399436950684,128,-191255,-1765,4134125
1756899743.387667,1.8535399436950684,128,-183665,1005,4134157
1756899743.387667,1.8535399436950684,128,-169580,3680,4134189
1756899743.3896773,1.8555502891540527,128,-163160,5040,4134221
1756899743.3896773,1.8555502891540527,128,-156905,4850,4134253
1756899743.3896773,1.8555502891540527,128,-146645,4320,4134285
1756899743.3896773,1.8555502891540527,128,-160295,4215,4134317
1756899743.3896773,1.8555502891540527,128,-169080,4380,4134349
1756899743.391667,1.8575398921966553,128,-183790,4195,4134381
1756899743.391667,1.8575398921966553,128,-179860,4415,4134413
1756899743.3926666,1.8585395812988281,128,-187105,4420,4134445
1756899743.3926666,1.8585395812988281,128,-211895,-2370,4134477
1756899743.3926666,1.8585395812988281,128,-220030,-2130,4134509
1756899743.3926666,1.8585395812988281,128,-216030,-865,4134541
1756899743.3941736,1.860046625137329,128,-212290,-1020,4134573
1756899743.395182,1.8610548973083496,128,-212710,-2465,4134605
1756899743.395182,1.8610548973083496,128,-208385,-4125,4134637
1756899743.395182,1.8610548973083496,128,-203160,-6325,4134669
1756899743.395182,1.8610548973083496,128,-193810,-6260,4134701
1756899743.395182,1.8610548973083496,128,-177155,-4800,4134733
1756899743.4001777,1.8660507202148438,128,-158825,-4930,4134765
1756899743.4011776,1.8670506477355957,128,-149780,-3460,4134797
1756899743.4076917,1.8735647201538086,128,-167895,-3335,4134829
1756899743.4086916,1.8745646476745605,128,-181930,-3355,4134861
1756899743.4096918,1.8755648136138916,128,-180995,-70,4134893
1756899743.4096918,1.8755648136138916,128,-181655,1050,4134925
