t_abs_unix,t_rel_s,exg_status,exg_ch1_24bit,exg_ch2_24bit,device_timestamp,emg_ch1_filtered,emg_ch1_envelope,emg_cycle_peak,emg_X
1756903069.219306,0.0,128,-110045,79175,12455853,-110045.0,0.0,0,
1756903069.2203147,0.001008749008178711,128,-109985,78375,12455885,-72272.12356214393,1786.9835200223424,0,
1756903069.227318,0.008012056350708008,128,-110170,78835,12455917,-52991.39863207338,9450.685133541625,0,
1756903069.227318,0.008012056350708008,128,-110105,79165,12455949,-52620.32890060376,9558.910282648283,0,
1756903069.227318,0.008012056350708008,128,-110215,79225,12455981,-52214.642452218766,9665.847069044185,0,
1756903069.227318,0.008012056350708008,128,-110200,79410,12456013,-51756.20354322315,9771.366473604248,0,
1756903069.227318,0.008012056350708008,128,-110095,78905,12456045,-51238.81267778822,9875.324258679702,0,
1756903069.227318,0.008012056350708008,128,-110005,78570,12456077,-50680.715058598485,9977.622288459743,0,
1756903069.227318,0.008012056350708008,128,-110010,78730,12456109,-50113.48392362162,10078.241826425536,0,
1756903069.231841,0.01253509521484375,128,-109995,78475,12456141,-32074.22605878667,12323.439459620033,0,
1756903069.231841,0.01253509521484375,128,-110245,78250,12456173,-31733.846586634823,12372.100834193268,0,
1756903069.231841,0.01253509521484375,128,-110215,78250,12456205,-31378.448026961305,12419.749241254707,0,
1756903069.2328382,0.013532161712646484,128,-110215,79160,12456237,-27974.92292484224,12800.017415077553,0,
1756903069.235025,0.015718936920166016,128,-110200,79925,12456269,-21958.793139300888,13277.157138147766,0,
1756903069.2425387,0.023232698440551758,128,-110220,79270,12456301,-11305.735368006528,12964.00679969793,1,
1756903069.2470448,0.02773880958557129,128,-110305,78945,12456333,-7269.25553831243,12384.68022081728,0,
1756903069.2470448,0.02773880958557129,128,-110125,78680,12456365,-7141.220621285821,12371.535007017137,0,
1756903069.2470448,0.02773880958557129,128,-110230,78865,12456397,-7045.968037501208,12358.183952223557,0,
1756903069.2470448,0.02773880958557129,128,-110000,79105,12456429,-6903.290699606715,12344.508679876839,0,
1756903069.2470448,0.02773880958557129,128,-110325,79370,12456461,-6845.306481360796,12330.722326180861,0,
1756903069.2480495,0.028743505477905273,128,-110230,79975,12456493,-6080.674065248059,12176.790735767776,0,
1756903069.2480495,0.028743505477905273,128,-110150,79920,12456525,-5988.031245722395,12161.275680276249,0,
1756903069.2480495,0.028743505477905273,128,-110225,77320,12456557,-5916.651195958012,12145.620572729447,0,
1756903069.2480495,0.028743505477905273,128,-110105,78335,12456589,-5819.388070063024,12129.760876050485,0,
1756903069.2480495,0.028743505477905273,128,-110310,79825,12456621,-5773.21124224261,12113.825175129838,0,
1756903069.2480495,0.028743505477905273,128,-110155,80115,12456653,-5688.1255810515195,12097.716117097389,0,
1756903069.2490494,0.029743432998657227,128,-110050,79675,12456685,-4952.683667078361,11922.556795694994,0,
1756903069.2490494,0.029743432998657227,128,-110120,77775,12456717,-4897.747410091195,11904.94578534464,0,
1756903069.2490494,0.029743432998657227,128,-110040,78260,12456749,-4824.639068635997,11887.195644660798,0,
1756903069.2490494,0.029743432998657227,128,-110125,78695,12456781,-4773.658026010658,11869.36219498935,0,
1756903069.249553,0.030246973037719727,128,-110250,78440,12456813,-4576.227376113883,11778.21853736335,0,
1756903069.252563,0.03325700759887695,128,-110260,77925,12456845,-3368.8230404168016,11186.786332965112,0,
1756903069.3177383,0.09843230247497559,128,-110315,77110,12456877,-373.3706937641632,4472.414290041224,0,
1756903069.3192418,0.09993577003479004,128,-110195,76635,12456909,-232.5603880424446,4318.0393164261395,0,
1756903069.3202465,0.10094046592712402,128,-110355,78195,12456941,-296.599597653234,4218.995823349387,0,
1756903069.3202465,0.10094046592712402,128,-110315,78715,12456973,-291.98819469226197,4209.150919637704,0,
1756903069.3202465,0.10094046592712402,128,-110350,79415,12457005,-295.25810367415556,4199.338894412739,0,
1756903069.3202465,0.10094046592712402,128,-110400,79335,12457037,-307.8522031385212,4189.583040746625,0,
1756903069.3202465,0.10094046592712402,128,-110485,78985,12457069,-335.20957110786316,4179.920228940365,0,
1756903069.3202465,0.10094046592712402,128,-110545,78950,12457101,-368.41627352850065,4170.364889866434,0,
1756903069.3212454,0.10193943977355957,128,-110505,79155,12457133,-388.88558175787296,4077.748781610137,0,
1756903069.3212454,0.10193943977355957,128,-110500,79045,12457165,-388.31091279908895,4068.499458969757,0,
1756903069.3212454,0.10193943977355957,128,-110515,79000,12457197,-390.0715222705432,4059.2777379364434,0,
1756903069.3222494,0.10294342041015625,128,-110475,79030,12457229,-335.57880510005134,3967.630945221106,0,
1756903069.3222494,0.10294342041015625,128,-110245,79445,12457261,-280.41442074961253,3958.3871914319225,0,
1756903069.3222494,0.10294342041015625,128,-110210,79355,12457293,-229.5570619347724,3949.039113441385,0,
1756903069.3222494,0.10294342041015625,128,-110340,79720,12457325,-218.07289701256036,3939.685680337705,0,
1756903069.323249,0.1039431095123291,128,-110230,79925,12457357,-101.25597421106215,3845.6090799684307,0,
1756903069.323249,0.1039431095123291,128,-110275,79565,12457389,-101.77824394944689,3836.2233956054893,0,
1756903069.323249,0.1039431095123291,128,-110060,79435,12457421,-55.09958504140436,3826.7442187469287,0,
1756903069.323249,0.1039431095123291,128,-110095,78645,12457453,-26.629745897002348,3817.2174328029514,0,
1756903069.323249,0.1039431095123291,128,-110160,78960,12457485,-18.78739380241632,3807.694869689848,0,
1756903069.3242486,0.10494256019592285,128,-110015,79100,12457517,96.11185222499903,3716.7483357474716,0,
1756903069.3242486,0.10494256019592285,128,-110120,78645,12457549,81.84298386055289,3707.635724677081,0,
1756903069.3242486,0.10494256019592285,128,-110105,78515,12457581,73.89871801613668,3698.526042617107,0,
1756903069.3242486,0.10494256019592285,128,-110045,78320,12457613,80.64136112425142,3689.4561019148396,0,
1756903069.3242486,0.10494256019592285,128,-110375,78285,12457645,13.775804339989406,3680.241269139755,0,
1756903069.3242486,0.10494256019592285,128,-110255,78820,12457677,-11.619721029649867,3671.044132461897,0,
1756903069.3242486,0.10494256019592285,128,-110305,79090,12457709,-42.02432402201291,3661.94627629244,0,
1756903069.3242486,0.10494256019592285,128,-110390,79240,12457741,-83.821250785574,3652.9760119905786,0,
1756903069.3242486,0.10494256019592285,128,-110285,79405,12457773,-92.91463213130372,3644.05103276807,0,
1756903069.3242486,0.10494256019592285,128,-110160,79465,12457805,-72.45083278281896,3635.097126030306,0,
1756903069.3242486,0.10494256019592285,128,-110140,79005,12457837,-52.143769730778274,3626.1147572315253,0,
1756903069.3252501,0.10594415664672852,128,-110245,79285,12457869,-69.61457170480847,3538.78578075811,0,
1756903069.3252501,0.10594415664672852,128,-110230,79325,12457901,-67.50180104221201,3530.0833641173003,0,
1756903069.3252501,0.10594415664672852,128,-110230,79270,12457933,-65.69051773462847,3521.398223364532,0,
1756903069.3252501,0.10594415664672852,128,-110350,79320,12457965,-90.23854233620604,3512.7963972736857,0,
1756903069.3252501,0.10594415664672852,128,-110395,79535,12457997,-118.687161427881,3504.2874556637953,0,
1756903069.3252501,0.10594415664672852,128,-110415,79435,12458029,-144.61891065053794,3495.864855950095,0,
1756903069.3252501,0.10594415664672852,128,-110210,79395,12458061,-119.56278048828112,3487.400556417821,0,
1756903069.3252501,0.10594415664672852,128,-110270,79755,12458093,-113.00601137215429,3478.9410390135818,0,
1756903069.3252501,0.10594415664672852,128,-110330,79375,12458125,-120.70991558862035,3470.522042877584,0,
1756903069.3252501,0.10594415664672852,128,-110265,79255,12458157,-112.16143581843801,3462.1027221295585,0,
1756903069.3252501,0.10594415664672852,128,-110110,79180,12458189,-71.53188305285053,3453.6026511862874,0,
1756903069.3252501,0.10594415664672852,128,-110230,79140,12458221,-66.1775768220476,3445.110466591509,0,
1756903069.3252501,0.10594415664672852,128,-110250,77465,12458253,-66.22794996852359,3436.6396979618544,0,
1756903069.3262486,0.10694265365600586,128,-110275,77120,12458285,-77.29539511794246,3354.4008449994594,0,
1756903069.3262486,0.10694265365600586,128,-110355,78150,12458317,-95.35214688342506,3346.2304965665962,0,
1756903069.3262486,0.10694265365600586,128,-110285,78325,12458349,-93.75530873126137,3338.076627749227,0,
1756903069.3262486,0.10694265365600586,128,-110350,78575,12458381,-106.41897211294959,3329.9749479315733,0,
1756903069.3262486,0.10694265365600586,128,-110205,79540,12458413,-84.31330074207719,3321.8381604794413,0,
1756903069.3262486,0.10694265365600586,128,-110215,79580,12458445,-69.24026262566626,3313.6839840313187,0,
1756903069.3262486,0.10694265365600586,128,-110360,79485,12458477,-89.01042774599344,3305.599813165041,0,
1756903069.3262486,0.10694265365600586,128,-110185,79705,12458509,-65.8931446030238,3297.4779546859936,0,
1756903069.3272612,0.1079552173614502,128,-110275,79290,12458541,-65.79776307148863,3217.2775171640683,0,
1756903069.3272612,0.1079552173614502,128,-110250,78705,12458573,-60.168387356952884,3209.3627285185325,0,
1756903069.3272612,0.1079552173614502,128,-110365,78915,12458605,-80.70352561966207,3201.519263083314,0,
1756903069.3272612,0.1079552173614502,128,-110230,79145,12458637,-66.90533445795135,3193.6608693090266,0,
1756903069.3272612,0.1079552173614502,128,-110300,79140,12458669,-71.33699898481366,3185.8332863841256,0,
1756903069.3272612,0.1079552173614502,128,-110280,79560,12458701,-70.20010696482204,3178.0224768434273,0,
1756903069.3297775,0.11047148704528809,128,-110045,79785,12458733,103.80580760356894,2995.17039769042,0,
1756903069.3297775,0.11047148704528809,128,-110245,80235,12458765,65.30885170794978,2987.825312695353,0,
1756903069.3297775,0.11047148704528809,128,-110265,80500,12458797,31.13752128730971,2980.412975016275,0,
1756903069.3297775,0.11047148704528809,128,-110195,80625,12458829,19.98166211797156,2972.991252428356,0,
1756903069.3307774,0.11147141456604004,128,-110130,79815,12458861,35.097422954063966,2900.9692576896714,0,
1756903069.3348832,0.11557722091674805,128,-110180,76005,12458893,-3.0202042342511035,2629.900986965277,0,
1756903069.3348832,0.11557722091674805,128,-110220,75300,12458925,-12.434121059762873,2623.3390671270477,0,
1756903069.3348832,0.11557722091674805,128,-110180,77660,12458957,-10.940509937167876,2616.78985340401,0,
1756903069.3348832,0.11557722091674805,128,-110295,77895,12458989,-34.79445460854577,2610.316859590692,0,
1756903069.3348832,0.11557722091674805,128,-110260,78245,12459021,-45.44554220839102,2603.886795394172,0,
1756903069.3358853,0.11657929420471191,128,-110195,78430,12459053,-23.748002205868268,2540.5027090420026,0,
1756903069.3358853,0.11657929420471191,128,-110070,78840,12459085,5.194670653460999,2534.146759199876,0,
1756903069.337519,0.11821293830871582,128,-110120,79305,12459117,40.18054610365644,2435.788016614107,0,
1756903069.337519,0.11821293830871582,128,-110345,79165,12459149,-7.259746815519669,2429.6997608127185,0,
1756903069.337519,0.11821293830871582,128,-110160,78980,12459181,-3.4925905109343627,2423.617323946054,0,
1756903069.337519,0.11821293830871582,128,-110165,79210,12459213,-1.6711132573390446,2417.545569191847,0,
1756903069.337519,0.11821293830871582,128,-110090,79470,12459245,16.06221917143979,2411.5251142852576,0,
1756903069.337519,0.11821293830871582,128,-110225,79695,12459277,0.28373292767951597,2405.480196253558,0,
1756903069.369184,0.14987802505493164,128,-110125,79565,12459309,8.837458083144162,1343.3970560062558,0,
1756903069.369184,0.14987802505493164,128,-110230,79635,12459341,-14.022876523706012,1340.0643502843982,0,
1756903069.369184,0.14987802505493164,128,-110185,79305,12459373,-21.788947372863017,1336.759468900304,0,
1756903069.369184,0.14987802505493164,128,-109975,79295,12459405,18.0054396869208,1333.453387612797,0,
1756903069.369184,0.14987802505493164,128,-110090,79190,12459437,23.56024417764548,1330.1695203303382,0,
1756903069.369184,0.14987802505493164,128,-110210,78915,12459469,1.6502258178449267,1326.8389577823705,0,
1756903069.369184,0.14987802505493164,128,-110155,78670,12459501,-3.250213422925011,1323.5207559925402,0,
1756903069.369184,0.14987802505493164,128,-110325,78550,12459533,-44.0206935612252,1320.3130833560506,0,
1756903069.369184,0.14987802505493164,128,-110220,78315,12459565,-52.43268425043354,1317.1345409065686,0,
1756903069.369184,0.14987802505493164,128,-110290,78220,12459597,-74.00365292529955,1314.0180448234225,0,
1756903069.369184,0.14987802505493164,128,-110215,78595,12459629,-74.08239798246164,1310.9095591248583,0,
1756903069.369184,0.14987802505493164,128,-110350,78615,12459661,-103.32788698770518,1307.882183980632,0,
1756903069.369184,0.14987802505493164,128,-110370,79040,12459693,-129.91516527911736,1304.9290519851586,0,
1756903069.369184,0.14987802505493164,128,-110415,78990,12459725,-159.82527854243304,1302.0583072717636,0,
1756903069.3741982,0.1548922061920166,128,-110370,78265,12459757,-136.94919042446742,1171.6634901648931,0,
1756903069.374326,0.15501999855041504,128,-110180,78475,12459789,-86.32019783470882,1168.18877466503,0,
1756903069.374326,0.15501999855041504,128,-110400,77550,12459821,-103.47263719786343,1165.5195596176368,0,
1756903069.374326,0.15501999855041504,128,-110250,77385,12459853,-83.74252686647034,1162.8075733593907,0,
1756903069.374326,0.15501999855041504,128,-110530,79040,12459885,-129.27503732132993,1160.216534771654,0,
1756903069.374326,0.15501999855041504,128,-110370,79860,12459917,-129.14742922225295,1157.6316719386534,0,
1756903069.374326,0.15501999855041504,128,-110250,79995,12459949,-102.57366185659684,1154.9866695598191,0,
1756903069.374326,0.15501999855041504,128,-110140,79785,12459981,-57.888429330843586,1152.2362734417945,0,
1756903069.374326,0.15501999855041504,128,-110110,79590,12460013,-16.79616387487978,1149.3897552767937,0,
1756903069.374326,0.15501999855041504,128,-110120,79590,12460045,12.710040150855235,1146.5401294536157,0,
1756903069.374326,0.15501999855041504,128,-110315,79495,12460077,-7.056410317340973,1143.683474066938,0,
1756903069.374326,0.15501999855041504,128,-110115,79215,12460109,21.281679019849307,1140.8696426097688,0,
1756903069.374326,0.15501999855041504,128,-110065,79050,12460141,53.92534417356838,1138.1447021538402,0,
1756903069.374326,0.15501999855041504,128,-110175,78160,12460173,54.964944402596956,1135.4291993013153,0,
1756903069.3753304,0.15602445602416992,128,-110165,77535,12460205,59.39037856349994,1108.9337193077954,0,
1756903069.3753304,0.15602445602416992,128,-110070,77690,12460237,80.24722347841382,1106.354829614013,0,
1756903069.3753304,0.15602445602416992,128,-110295,77970,12460269,47.1062863299998,1103.6993216798614,0,
1756903069.3753304,0.15602445602416992,128,-110365,78305,12460301,6.224105731582426,1100.9479804937318,0,
1756903069.3753304,0.15602445602416992,128,-110380,78590,12460333,-28.53356569690466,1098.259466069759,0,
1756903069.3753304,0.15602445602416992,128,-110120,78610,12460365,1.382587921556219,1095.509624900585,0,
1756903069.3753304,0.15602445602416992,128,-110450,78910,12460397,-47.424770497851384,1092.8821040376329,0,
1756903069.3753304,0.15602445602416992,128,-110125,79075,12460429,-14.124308942722443,1090.1776869279138,0,
1756903069.4105144,0.1912083625793457,128,-110190,79295,12460461,6.918075636589215,581.8148527643407,0,
1756903069.4105144,0.1912083625793457,128,-110140,79640,12460493,17.829461985652852,580.400956385201,0,
1756903069.4105144,0.1912083625793457,128,-110150,79625,12460525,24.004559200957686,579.0060854112223,0,
1756903069.4115174,0.19221138954162598,128,-110185,79725,12460557,13.377741390095531,565.0978735164515,0,
1756903069.4115174,0.19221138954162598,128,-110205,79265,12460589,8.171746095971148,563.7016745228553,0,
1756903069.4115174,0.19221138954162598,128,-110210,78310,12460621,3.052847593762472,562.2961428205722,0,
1756903069.4115174,0.19221138954162598,128,-110365,78965,12460653,-34.63778778824242,560.973317354166,0,
1756903069.4125185,0.19321250915527344,128,-110240,79095,12460685,-37.22767138952703,548.1188457271439,0,
1756903069.4125185,0.19321250915527344,128,-110200,79190,12460717,-28.617595575873544,546.8164699057893,0,
1756903069.4125185,0.19321250915527344,128,-110270,79175,12460749,-37.14834895512392,545.5387454778921,0,
1756903069.4125185,0.19321250915527344,128,-110205,79480,12460781,-29.465047746839936,544.2449624393213,0,
1756903069.4135184,0.1942124366760254,128,-110335,79735,12460813,-94.51512678616882,533.2199078467131,0,
1756903069.4135184,0.1942124366760254,128,-110325,78860,12460845,-97.0883226808788,532.1265375588001,0,
1756903069.4145184,0.19521236419677734,128,-110425,78555,12460877,-160.68005155801967,523.0205866928908,0,
1756903069.4145184,0.19521236419677734,128,-110510,78920,12460909,-183.6400692831291,522.1697687593736,0,
1756903069.4145184,0.19521236419677734,128,-110290,79195,12460941,-152.92396780582567,521.2440793540861,0,
1756903069.415518,0.1962120532989502,128,-110450,79185,12460973,-174.02371764291078,512.734007864008,0,
1756903069.415518,0.1962120532989502,128,-110370,79360,12461005,-157.757832779823,511.84409203136664,0,
1756903069.415518,0.1962120532989502,128,-110545,79370,12461037,-182.89803819318374,511.0194330205863,0,
1756903069.415518,0.1962120532989502,128,-110510,79475,12461069,-194.13428397936678,510.22501037745025,0,
1756903069.416518,0.19721198081970215,128,-110545,79600,12461101,-227.17414995334732,503.28606405620326,0,
1756903069.416518,0.19721198081970215,128,-110475,80000,12461133,-213.85867821300343,502.56047729534305,0,
1756903069.416518,0.19721198081970215,128,-110540,80420,12461165,-217.1715709941308,501.8450148953174,0,
1756903069.4175181,0.1982121467590332,128,-110430,80190,12461197,-134.75758014404624,492.8438323779692,0,
1756903069.4175181,0.1982121467590332,128,-110400,80180,12461229,-121.51435400555832,491.91291924879454,0,
1756903069.4175181,0.1982121467590332,128,-110335,79660,12461261,-96.83638842448657,490.92247289052216,0,
1756903069.4175181,0.1982121467590332,128,-110295,79410,12461293,-68.86440761111876,489.8643845427702,0,
1756903069.4175181,0.1982121467590332,128,-110310,79710,12461325,-50.40555995952842,488.7626729541041,0,
1756903069.4175181,0.1982121467590332,128,-110185,77355,12461357,-8.845465827831667,487.55953327613156,0,
1756903069.4175181,0.1982121467590332,128,-110135,76285,12461389,34.06029060560553,486.42262273263475,0,
1756903069.4175181,0.1982121467590332,128,-110190,77215,12461421,55.02775176915033,485.3411272612847,0,
1756903069.4190214,0.19971537590026855,128,-109870,77865,12461453,316.3351425438254,479.18848420353,0,
1756903069.4190214,0.19971537590026855,128,-109705,78365,12461485,364.77117955213555,478.90164306295685,0,
1756903069.4190214,0.19971537590026855,128,-109680,78380,12461517,406.50658751760324,478.7201505835828,0,
1756903069.4190214,0.19971537590026855,128,-109730,78440,12461549,426.6425867736282,478.5895935157771,0,
1756903069.4200265,0.20072054862976074,128,-109735,78085,12461581,434.7376773522473,477.50907066612433,0,
1756903069.4200265,0.20072054862976074,128,-109815,78005,12461613,416.7536589743975,477.35675846441023,0,
1756903069.4200265,0.20072054862976074,128,-109660,77710,12461645,435.5088731582177,477.2518469286214,0,
1756903069.4200265,0.20072054862976074,128,-109660,77450,12461677,448.7572520600391,477.18041173691523,0,
1756903069.4210262,0.2017202377319336,128,-109765,77940,12461709,373.6068721584663,474.6419136432285,0,
1756903069.4210262,0.2017202377319336,128,-109855,78005,12461741,347.2055284436425,474.3224340138793,0,
1756903069.4210262,0.2017202377319336,128,-109825,78425,12461773,332.4597945042302,473.9667881485476,0,
1756903069.4210262,0.2017202377319336,128,-109870,78945,12461805,310.40170360482443,473.55673483055165,0,
1756903069.4220297,0.20272374153137207,128,-109590,78970,12461837,417.3245553330943,472.17340294272446,0,
1756903069.4220297,0.20272374153137207,128,-109740,78700,12461869,391.7334555747938,471.971742133453,0,
1756903069.4220297,0.20272374153137207,128,-109725,78280,12461901,374.2244455555978,471.72669225988926,0,
1756903069.4220297,0.20272374153137207,128,-109680,77845,12461933,369.51632632085864,471.4704535901035,0,
1756903069.4220297,0.20272374153137207,128,-109645,78500,12461965,372.4996937224537,471.2223365266023,0,
1756903069.4220297,0.20272374153137207,128,-109570,78700,12461997,390.1040207783362,471.01897506583816,0,
1756903069.4220297,0.20272374153137207,128,-109645,78640,12462029,386.2641344314417,470.80649693387437,0,
1756903069.423029,0.20372295379638672,128,-109605,77820,12462061,371.77432847071515,468.38043330186173,0,
1756903069.423029,0.20372295379638672,128,-109570,78160,12462093,377.2598643823092,468.1519964583424,0,
1756903069.423029,0.20372295379638672,128,-109605,78580,12462125,372.83221650783105,467.9130323044193,0,
1756903069.423029,0.20372295379638672,128,-109600,78255,12462157,369.4918901661347,467.6662931179521,0,
1756903069.423029,0.20372295379638672,128,-109675,78000,12462189,349.5830103578028,467.37026146773326,0,
1756903069.424029,0.20472311973571777,128,-109795,77720,12462221,195.78431876714967,460.71082720774444,0,
1756903069.424029,0.20472311973571777,128,-109730,77785,12462253,197.55923037909227,460.0511131513091,0,
1756903069.4280288,0.20872282981872559,128,-109830,78055,12462285,79.5398017164266,425.2945718013328,0,
1756903069.4280288,0.20872282981872559,128,-109660,78060,12462317,114.05696523934415,424.51430739703227,0,
1756903069.4290302,0.20972418785095215,128,-109840,78045,12462349,66.61758709769853,415.728283091945,0,
1756903069.4295352,0.21022915840148926,128,-109900,78375,12462381,21.833480787333777,410.7918974048977,0,
1756903069.4295352,0.21022915840148926,128,-109755,78495,12462413,46.51010735839651,409.8786526429684,0,
1756903069.4661636,0.2468576431274414,128,-109855,78875,12462445,6.417219869351385,216.49055462824276,0,
1756903069.4681587,0.24885272979736328,128,-109775,79375,12462477,59.39364346576567,208.98951870041446,0,
1756903069.4696631,0.25035715103149414,128,-109785,79175,12462509,51.33346700084855,203.24568294028472,0,
1756903069.5018852,0.2825791835784912,128,-109905,78955,12462541,-13.265878007411835,118.23707102520416,0,
1756903069.5018852,0.2825791835784912,128,-109920,78555,12462573,-16.64922047550941,117.98239298494768,0,
1756903069.5043938,0.28508782386779785,128,-110030,79045,12462605,-94.42600457083721,116.58527310310961,0,
1756903069.5043938,0.28508782386779785,128,-109945,79140,12462637,-78.05142736562627,116.48866977640405,0,
1756903069.5195298,0.30022382736206055,128,-109785,77795,12462669,45.311616922632325,96.87389990987403,0,
1756903069.5195298,0.30022382736206055,128,-110085,77535,12462701,-19.490429969910167,96.67990160824725,0,
1756903069.5255373,0.3062312602996826,128,-110180,78515,12462733,-186.03388047346363,108.40114490994489,0,
1756903069.526538,0.3072319030761719,128,-110065,78660,12462765,-101.63873732615383,108.23524990146392,0,
1756903069.5938468,0.3745408058166504,128,-110005,78945,12462797,-1.7733070939790139,41.325870260088365,0,
1756903069.5938468,0.3745408058166504,128,-110045,79045,12462829,-10.361638629680565,41.24824375468433,0,
1756903069.5938468,0.3745408058166504,128,-110145,78705,12462861,-38.7140179990018,41.24189051809617,0,
1756903069.5938468,0.3745408058166504,128,-110045,78490,12462893,-38.66820280607236,41.2354383514327,0,
1756903069.5938468,0.3745408058166504,128,-110275,78790,12462925,-88.59477244191785,41.35416694278247,0,
1756903069.5938468,0.3745408058166504,128,-110270,78555,12462957,-125.70267316654991,41.56562640518267,0,
1756903069.5938468,0.3745408058166504,128,-110240,78590,12462989,-147.39778402747635,41.83094481042027,0,
1756903069.5938468,0.3745408058166504,128,-110325,78815,12463021,-182.2009849461365,42.182848768807496,0,
1756903069.5938468,0.3745408058166504,128,-110260,78320,12463053,-194.34815992436052,42.56432315802254,0,
1756903069.5948472,0.37554121017456055,128,-110055,79025,12463085,-71.96756127288704,43.28547411762584,0,
1756903069.5948472,0.37554121017456055,128,-110310,79165,12463117,-117.86211973970774,43.472435785317025,0,
1756903069.6103745,0.3910684585571289,128,-110245,79080,12463149,-73.91378729859595,52.01735156804377,0,
1756903069.6113741,0.39206814765930176,128,-110025,78145,12463181,77.2070092712698,52.6347283451677,0,
1756903069.6113741,0.39206814765930176,128,-110230,78420,12463213,44.00879382269379,52.61310335667078,0,
1756903069.6113741,0.39206814765930176,128,-109920,79060,12463245,85.81140391090332,52.69633061346623,0,
1756903069.6113741,0.39206814765930176,128,-110015,78965,12463277,97.08056983986853,52.80760072109515,0,
1756903069.6123786,0.39307260513305664,128,-109955,78655,12463309,154.6088033882831,55.31426839571982,0,
1756903069.6123786,0.39307260513305664,128,-109940,78460,12463341,161.86061661424196,55.58137725779289,0,
1756903069.6123786,0.39307260513305664,128,-109920,78085,12463373,171.35475273396546,55.87161803186779,0,
1756903069.6123786,0.39307260513305664,128,-109850,78215,12463405,193.43355679366522,56.216482154773885,0,
1756903069.6133788,0.3940727710723877,128,-110035,78045,12463437,107.31444935278898,57.46943195766335,0,
1756903069.6133788,0.3940727710723877,128,-110065,78405,12463469,93.86108310577353,57.56066485949116,0,
1756903069.6133788,0.3940727710723877,128,-110275,78420,12463501,37.53260631000945,57.51045504922425,0,
1756903069.6133788,0.3940727710723877,128,-110095,78235,12463533,33.24575518108915,57.44962409181753,0,
1756903069.6133788,0.3940727710723877,128,-110180,77885,12463565,11.351094918646723,57.33405630487252,0,
1756903069.6143785,0.39507246017456055,128,-110225,78390,12463597,-69.93115118851574,57.642800231924454,0,
1756903069.6143785,0.39507246017456055,128,-110245,79245,12463629,-80.35346073270938,57.699735253956845,0,
1756903069.6143785,0.39507246017456055,128,-110235,78755,12463661,-85.98098033559683,57.77063558341978,0,
1756903069.6153777,0.3960716724395752,128,-110025,78675,12463693,45.84147910666081,57.47839829186114,0,
1756903069.6153777,0.3960716724395752,128,-110110,78640,12463725,37.369896698236495,57.42798681302142,0,
1756903069.6153777,0.3960716724395752,128,-110055,78840,12463757,42.718055109059826,57.391109405355046,0,
1756903069.61638,0.39707398414611816,128,-110015,79490,12463789,77.8628772895371,57.89413871869272,0,
1756903069.61638,0.39707398414611816,128,-110090,79770,12463821,64.02305860329992,57.909503757884465,0,
1756903069.6173787,0.3980727195739746,128,-110240,80260,12463853,-71.7862592842078,58.24929455539681,0,
1756903069.6198876,0.40058159828186035,128,-110155,79855,12463885,-32.111922560876955,56.69895898962125,0,
1756903069.6198876,0.40058159828186035,128,-110190,76920,12463917,-38.425571894673965,56.653148094036716,0,
1756903069.6198876,0.40058159828186035,128,-110135,78305,12463949,-31.208671996450676,56.58935946899128,0,
1756903069.6258922,0.4065861701965332,128,-110180,79055,12463981,-29.016266158789907,52.97388310243582,0,
1756903069.6258922,0.4065861701965332,128,-110050,79030,12464013,-0.6096910195190262,52.842607465170836,0,
1756903069.6258922,0.4065861701965332,128,-110195,78915,12464045,-10.302048859324989,52.735959415836895,0,
1756903069.6258922,0.4065861701965332,128,-110155,78755,12464077,-9.028642978468703,52.626386335641705,0,
1756903069.626891,0.40758490562438965,128,-110125,78425,12464109,14.353996866200145,51.689236025840856,0,
1756903069.626891,0.40758490562438965,128,-110180,78275,12464141,4.144558334685604,51.57004278301222,0,
1756903069.626891,0.40758490562438965,128,-110185,78200,12464173,-4.81549608795209,51.452830377582366,0,
1756903069.626891,0.40758490562438965,128,-110135,78035,12464205,-0.8164421576258283,51.325886298662056,0,
1756903069.6334033,0.41409730911254883,128,-110215,77895,12464237,-34.81947712257146,49.00420699636481,0,
1756903069.6344023,0.4150962829589844,128,-110210,78080,12464269,-29.882267426036538,48.53587186055741,0,
1756903069.6344023,0.4150962829589844,128,-110255,78145,12464301,-39.215854479514434,48.512506824788694,0,
1756903069.6359043,0.4165983200073242,128,-110285,78315,12464333,-77.07942300678337,49.551687337293565,0,
1756903069.6359043,0.4165983200073242,128,-110345,78490,12464365,-91.87047541283324,49.657779413804576,0,
1756903069.636907,0.4176011085510254,128,-110365,78835,12464397,-131.74544559246718,51.67576164423275,0,
1756903069.637908,0.41860198974609375,128,-110265,79975,12464429,-64.46562145890442,51.98959470096615,0,
1756903069.6404178,0.4211118221282959,128,-110285,80310,12464461,-48.40268879401606,51.776761666898686,0,
1756903069.6404178,0.4211118221282959,128,-110195,79940,12464493,-28.18586611096018,51.71761991898718,0,
1756903069.6404178,0.4211118221282959,128,-110120,79705,12464525,3.782652930781655,51.597448231268054,0,
1756903069.6414158,0.42210984230041504,128,-110115,79635,12464557,80.93009213404224,52.31519519687536,0,
1756903069.642419,0.4231131076812744,128,-110100,79505,12464589,102.0301043964662,53.53791646334183,0,
1756903069.642419,0.4231131076812744,128,-109900,77425,12464621,146.90727240994443,53.77199095614605,0,
1756903069.642419,0.4231131076812744,128,-110085,77165,12464653,140.78474748341733,53.990129623218635,0,
1756903069.642419,0.4231131076812744,128,-110100,78400,12464685,132.420591084819,54.186752704752195,0,
1756903069.642419,0.4231131076812744,128,-109965,78715,12464717,155.0062691886706,54.43950455193465,0,
1756903069.6434188,0.42411279678344727,128,-110195,78595,12464749,43.71489399650143,54.17665360022145,0,
1756903069.6434188,0.42411279678344727,128,-109980,78545,12464781,81.8266167652302,54.24597132270425,0,
1756903069.6434188,0.42411279678344727,128,-110275,78575,12464813,46.72799201219968,54.227123948464836,0,
1756903069.6444194,0.4251134395599365,128,-110385,78680,12464845,-110.79732594367337,55.614901012104085,0,
1756903069.6444194,0.4251134395599365,128,-110275,78860,12464877,-98.66900568758645,55.722836507780166,0,
1756903069.6444194,0.4251134395599365,128,-110410,78960,12464909,-118.44896587917235,55.880089246318676,0,
1756903069.6444194,0.4251134395599365,128,-110055,78820,12464941,-56.075339392868536,55.88057873324466,0,
1756903069.6454194,0.4261133670806885,128,-110260,78695,12464973,-41.2127151620042,55.52099841677534,0,
1756903069.6454194,0.4261133670806885,128,-110250,78660,12465005,-37.77876139434519,55.47651910030011,0,
1756903069.6454194,0.4261133670806885,128,-110215,78850,12465037,-27.412615652834628,55.40616364053525,0,
1756903069.6454194,0.4261133670806885,128,-110090,79145,12465069,7.853975136721946,55.286951568298974,0,
1756903069.6489258,0.42961978912353516,128,-110210,79350,12465101,8.654354048319739,51.510234353065655,0,
1756903069.6489258,0.42961978912353516,128,-110255,79140,12465133,-1.1475849267286886,51.38397653002264,0,
1756903069.6489258,0.42961978912353516,128,-110160,79090,12465165,11.989103630135919,51.285214631114385,0,
1756903069.6499305,0.43062448501586914,128,-110205,79045,12465197,11.95486335043508,50.31655274701611,0,
1756903069.6509337,0.4316277503967285,128,-110160,79060,12465229,40.503427803527075,50.07520227988108,0,
1756903069.6509337,0.4316277503967285,128,-110040,78885,12465261,68.70567916574083,50.12190839007694,0,
1756903069.6519392,0.4326331615447998,128,-110045,78755,12465293,125.23179438044981,51.9730640681511,0,
1756903069.6519392,0.4326331615447998,128,-110015,79020,12465325,135.7483275807642,52.18308642631612,0,
1756903069.6519392,0.4326331615447998,128,-109875,78950,12465357,173.94965282502758,52.488351970683695,0,
1756903069.6519392,0.4326331615447998,128,-110030,78260,12465389,169.1439523576111,52.7808044591528,0,
1756903069.6644483,0.4451422691345215,128,-109725,77835,12465421,177.50761257901735,82.61417734364302,0,
1756903069.6674485,0.44814252853393555,128,-110065,78455,12465453,-86.68699684476928,82.8997534582758,0,
1756903069.6674485,0.44814252853393555,128,-109905,78585,12465485,-58.3997801692383,82.83833267665845,0,
1756903069.6674485,0.44814252853393555,128,-109925,78535,12465517,-40.81528374603539,82.73298201032047,0,
1756903069.6674485,0.44814252853393555,128,-109915,78425,12465549,-24.988400886007874,82.58821788078534,0,
1756903069.6689525,0.4496464729309082,128,-110190,78145,12465581,-170.91031077120564,85.8050475025187,0,
1756903069.6689525,0.4496464729309082,128,-110070,78515,12465613,-151.79062999195,85.97047160336007,0,
1756903069.6689525,0.4496464729309082,128,-110200,78890,12465645,-164.95417032332455,86.16848163599057,0,
1756903069.6689525,0.4496464729309082,128,-110165,79065,12465677,-167.01861614062182,86.37117077350746,0,
1756903069.6689525,0.4496464729309082,128,-110075,79245,12465709,-148.55948246896557,86.52707521743218,0,
1756903069.6699584,0.4506523609161377,128,-110235,79055,12465741,-198.43661642837557,89.28646977892747,0,
1756903069.6699584,0.4506523609161377,128,-110105,79135,12465773,-173.4122844662818,89.49737095956692,0,
1756903069.6699584,0.4506523609161377,128,-110070,79300,12465805,-146.05258677094153,89.63915338188599,0,
1756903069.6699584,0.4506523609161377,128,-110080,79350,12465837,-126.76556261850013,89.73222830270554,0,
1756903069.6699584,0.4506523609161377,128,-110115,79270,12465869,-119.18861693400538,89.80607468580213,0,
1756903069.6759615,0.45665550231933594,128,-110010,79435,12465901,0.15611803946680425,78.053305423515,0,
1756903069.6769629,0.4576568603515625,128,-110060,79300,12465933,-28.061179831605553,76.82604625738983,0,
1756903069.6769629,0.4576568603515625,128,-110060,79360,12465965,-30.15393363534012,76.70904051198922,0,
1756903069.677962,0.45865607261657715,128,-110065,79425,12465997,-35.807166339614795,75.70703731494048,0,
1756903069.6794667,0.4601607322692871,128,-110065,79320,12466029,-32.55949930695684,74.13481592493093,0,
1756903069.6794667,0.4601607322692871,128,-110005,78300,12466061,-19.24313734397675,73.99720394621752,0,
1756903069.6824775,0.46317148208618164,128,-109925,78650,12466093,68.00034993255761,73.57535244789382,0,
1756903069.6824775,0.46317148208618164,128,-109920,78960,12466125,71.13373747355642,73.56923138407211,0,
1756903069.683479,0.4641730785369873,128,-110110,78765,12466157,-52.187983779597516,73.04422017315693,0,
1756903069.6844783,0.46517229080200195,128,-110085,78560,12466189,-60.05800855467272,72.72608742685698,0,
1756903069.6844783,0.46517229080200195,128,-110130,78155,12466221,-70.29595203685005,72.71999514204796,0,
1756903069.685477,0.4661710262298584,128,-110065,77945,12466253,-45.61660999600323,72.0563327436877,0,
1756903069.685477,0.4661710262298584,128,-110280,78630,12466285,-90.39168696713058,72.10229898921577,0,
1756903069.685477,0.4661710262298584,128,-110120,79245,12466317,-89.78729354740781,72.14663480035514,0,
1756903069.686477,0.46717095375061035,128,-110140,79890,12466349,-94.10557626070411,72.68495471867817,0,
1756903069.686477,0.46717095375061035,128,-110210,80400,12466381,-109.41861106571186,72.77704501844626,0,
1756903069.686477,0.46717095375061035,128,-110010,80685,12466413,-77.37180470373687,72.78856395880938,0,
1756903069.686477,0.46717095375061035,128,-110085,80765,12466445,-68.8135776839162,72.77859877390726,0,
1756903069.686477,0.46717095375061035,128,-110000,78885,12466477,-43.533070568318514,72.70528101229145,0,
1756903069.6874778,0.4681718349456787,128,-110070,78090,12466509,-27.198669192139835,71.58865586580502,0,
1756903069.6874778,0.4681718349456787,128,-109985,77820,12466541,-7.364530499897892,71.42764769113778,0,
1756903069.6874778,0.4681718349456787,128,-109995,77050,12466573,5.7491504350116625,71.26299344481136,0,
1756903069.6874778,0.4681718349456787,128,-110160,76845,12466605,-20.088372885795998,71.13470003172783,0,
1756903069.6874778,0.4681718349456787,128,-109865,77805,12466637,24.291324678259983,71.01726493521318,0,
1756903069.688982,0.46967601776123047,128,-109980,78185,12466669,49.73707067769695,70.24208837690969,0,
1756903069.688982,0.46967601776123047,128,-109910,78185,12466701,66.14140635123535,70.23180807610244,0,
1756903069.688982,0.46967601776123047,128,-109875,77985,12466733,86.2092295028946,70.27186304680326,0,
1756903069.6909866,0.4716806411743164,128,-110160,77630,12466765,-73.85596184736997,70.44377476939161,0,
1756903069.6909866,0.4716806411743164,128,-109975,77565,12466797,-39.52967869490673,70.36627395249324,0,
1756903069.6919906,0.4726846218109131,128,-110115,77725,12466829,-48.46561257601337,69.82726008222576,0,
1756903069.6919906,0.4726846218109131,128,-110220,78160,12466861,-71.87524495359703,69.83239432584539,0,
1756903069.6919906,0.4726846218109131,128,-110145,78430,12466893,-73.37540735035775,69.84127656529434,0,
1756903069.6990716,0.4797656536102295,128,-109970,78235,12466925,45.05186606363293,66.09612029205628,0,
1756903069.7000022,0.4806962013244629,128,-110195,78390,12466957,-100.49441685998278,66.882216055624,0,
1756903069.7010016,0.48169565200805664,128,-110225,78680,12466989,-148.19857385206024,68.87474615924953,0,
1756903069.7010016,0.48169565200805664,128,-110180,78805,12467021,-141.6721178460703,69.05724723449329,0,
1756903069.7020006,0.4826946258544922,128,-109980,79310,12467053,16.375261465102938,67.76695840844783,0,
1756903069.7020006,0.4826946258544922,128,-109920,80385,12467085,41.572219598027985,67.70128889472971,0,
1756903069.7055075,0.48620152473449707,128,-109975,79700,12467117,51.531669928830624,66.39156750835627,0,
1756903069.7055075,0.48620152473449707,128,-109980,79145,12467149,50.5209274691851,66.35178023575506,0,
1756903069.7055075,0.48620152473449707,128,-109945,79215,12467181,57.223537518289604,66.32889597396893,0,
1756903069.7065063,0.4872002601623535,128,-109995,79345,12467213,35.2586073325587,65.56809867258413,0,
1756903069.7065063,0.4872002601623535,128,-109950,79360,12467245,43.26476509568593,65.5121848083197,0,
1756903069.7090087,0.4897027015686035,128,-109845,79345,12467277,123.05893636813549,68.91732468627066,0,
1756903069.7100155,0.4907095432281494,128,-109910,79170,12467309,77.53905351146933,69.13011039258592,0,
1756903069.7100155,0.4907095432281494,128,-109840,79015,12467341,89.08413480998671,69.18013460125216,0,
1756903069.7100155,0.4907095432281494,128,-109965,78885,12467373,70.51838812183247,69.18348956724607,0,
1756903069.7110136,0.49170756340026855,128,-109775,78480,12467405,146.2893626550275,71.07021026731985,0,
1756903069.712017,0.49271106719970703,128,-109920,77985,12467437,56.60006467896086,70.7142394692329,0,
1756903069.7130203,0.4937143325805664,128,-110180,77555,12467469,-139.55050307020605,72.4072439373914,0,
1756903069.7140176,0.49471163749694824,128,-110225,77235,12467501,-202.95835000142614,75.59949446517376,0,
1756903069.7170186,0.4977126121520996,128,-110020,77935,12467533,-34.67866855422113,72.72959045792642,0,
1756903069.7170186,0.4977126121520996,128,-110180,78840,12467565,-65.09621456970434,72.71045378753489,0,
1756903069.718018,0.49871206283569336,128,-110040,79400,12467597,-38.457079191824256,71.87112844289055,0,
1756903069.718018,0.49871206283569336,128,-109840,79675,12467629,7.237267556654196,71.7090930721681,0,
1756903069.718018,0.49871206283569336,128,-109885,79660,12467661,32.601904152247414,71.61105238934853,0,
1756903069.7205267,0.501220703125,128,-110065,78810,12467693,-34.41370710548952,69.4048928654826,0,
1756903069.7205267,0.501220703125,128,-109940,77085,12467725,-9.165620658261485,69.25387461173278,0,
1756903069.7215304,0.5022244453430176,128,-109865,78360,12467757,99.4750423698974,69.9974985211055,0,
1756903069.7235296,0.5042235851287842,128,-110015,79105,12467789,6.638215646032904,66.96637857304428,0,
1756903069.7265298,0.5072238445281982,128,-109950,79975,12467821,36.568381101228624,64.83494554287503,0,
1756903069.7300367,0.5107307434082031,128,-109905,80085,12467853,57.005456393560095,64.20076551644011,0,
1756903069.7330399,0.5137338638305664,128,-109840,80035,12467885,86.58994727326356,65.77203198983153,0,
1756903069.7360404,0.5167343616485596,128,-110015,79940,12467917,-46.03881871217399,64.38828522896165,0,
1756903069.7405477,0.5212416648864746,128,-109900,79495,12467949,28.2179811008686,60.707808767559555,0,
1756903069.7455509,0.5262448787689209,128,-109710,78875,12467981,130.33959368751954,68.48560624347053,0,
1756903069.7480612,0.5287551879882812,128,-110020,78930,12468013,-98.80467325763442,70.2849431661328,0,
1756903069.7515683,0.5322623252868652,128,-109980,78990,12468045,-66.48391318736685,69.97704467452522,0,
1756903069.7565727,0.537266731262207,128,-109850,78750,12468077,33.9004270865277,65.94647138627658,0,
1756903069.7575724,0.5382664203643799,128,-109860,78755,12468109,29.199039589653317,65.04582353796243,0,
1756903069.7610807,0.5417747497558594,128,-110005,78505,12468141,-71.38336566921353,65.55934992235723,0,
1756903069.7630858,0.5437798500061035,128,-109855,78510,12468173,35.790968101487366,64.13118262502587,0,
1756903069.767086,0.5477800369262695,128,-110150,78625,12468205,-144.0195661832998,71.4291120402448,0,
1756903069.769084,0.5497779846191406,128,-109895,78935,12468237,42.91047580793702,70.06554980610048,0,
1756903069.7725968,0.553290843963623,128,-109935,78925,12468269,26.61620353260756,66.54070408957486,0,
1756903069.7725968,0.553290843963623,128,-109925,78970,12468301,28.363130246475425,66.44499392703577,0,
1756903069.7725968,0.553290843963623,128,-109960,78900,12468333,22.011523141055793,66.33360039719598,0,
1756903069.7725968,0.553290843963623,128,-109740,78905,12468365,64.9519481363018,66.33013663171403,0,
1756903069.7725968,0.553290843963623,128,-109780,79090,12468397,89.12687579426552,66.38728745066277,0,
1756903069.7725968,0.553290843963623,128,-109685,79105,12468429,128.17555223021927,66.54218898760598,0,
1756903069.7725968,0.553290843963623,128,-109650,78975,12468461,165.50765490335715,66.79029277931052,0,
1756903069.7725968,0.553290843963623,128,-109800,78440,12468493,161.14425599567514,67.02683565636077,0,
1756903069.7735958,0.5542898178100586,128,-109750,78135,12468525,170.55254916571388,69.56239063589827,0,
1756903069.7735958,0.5542898178100586,128,-109710,79260,12468557,179.51850504982696,69.83804769116254,0,
1756903069.7735958,0.5542898178100586,128,-109820,79645,12468589,161.98497375571625,70.06905758475507,0,
1756903069.7735958,0.5542898178100586,128,-109850,79460,12468621,141.51216163613142,70.24816354704475,0,
1756903069.7735958,0.5542898178100586,128,-109835,78930,12468653,128.62822707328772,70.39452081406498,0,
1756903069.7735958,0.5542898178100586,128,-109785,78910,12468685,129.241231696066,70.54204795359861,0,
1756903069.7735958,0.5542898178100586,128,-109875,78960,12468717,109.7679678132416,70.6403862917272,0,
1756903069.7735958,0.5542898178100586,128,-109755,79065,12468749,120.59738353175754,70.76562715552484,0,
1756903069.7735958,0.5542898178100586,128,-109915,78970,12468781,93.77545220388397,70.82331217512365,0,
1756903069.7735958,0.5542898178100586,128,-109790,78605,12468813,100.0792717075437,70.89665608779846,0,
1756903069.7735958,0.5542898178100586,128,-109800,78360,12468845,102.48198797540915,70.97583967503316,0,
1756903069.7745967,0.555290699005127,128,-109895,78540,12468877,37.246550282252514,70.14820230097538,0,
1756903069.7745967,0.555290699005127,128,-109890,78760,12468909,33.21500600164755,70.05561175985237,0,
1756903069.7745967,0.555290699005127,128,-110015,78955,12468941,2.809579450671851,69.8870277448264,0,
1756903069.7745967,0.555290699005127,128,-109915,79065,12468973,1.1611564450980876,69.71473381279786,0,
1756903069.7745967,0.555290699005127,128,-109795,79175,12469005,26.011088875981653,69.60516993695694,0,
1756903069.7745967,0.555290699005127,128,-109845,79675,12469037,34.187739144794094,69.5163793796584,0,
1756903069.7745967,0.555290699005127,128,-109780,79675,12469069,54.53900100062475,69.47883149028864,0,
1756903069.7745967,0.555290699005127,128,-109865,79730,12469101,51.555081333601834,69.433897125212,0,
1756903069.7745967,0.555290699005127,128,-109805,79545,12469133,62.17783751688373,69.41570637670188,0,
1756903069.7745967,0.555290699005127,128,-109810,79550,12469165,69.0978280502972,69.41490946418949,0,
1756903069.7745967,0.555290699005127,128,-109880,80060,12469197,58.99856885273085,69.38879597523174,0,
1756903069.7745967,0.555290699005127,128,-109765,79930,12469229,76.09552475783694,69.40560956596768,0,
1756903069.7755954,0.5562894344329834,128,-109640,79580,12469261,191.5214667249931,72.39577858741202,0,
1756903069.7755954,0.5562894344329834,128,-109615,79175,12469293,205.33763441238474,72.72906028523671,0,
1756903069.7801073,0.5608012676239014,128,-109820,79160,12469325,44.043277991345064,69.80752975666678,0,
1756903069.7811062,0.5618002414703369,128,-109935,79195,12469357,-43.33919495365987,69.15926648143935,0,
1756903069.7811062,0.5618002414703369,128,-109795,79840,12469389,-19.47922176129125,69.03471993024529,0,
1756903069.7811062,0.5618002414703369,128,-109790,78545,12469421,0.03238587468080212,68.86173291343862,0,
1756903069.7811062,0.5618002414703369,128,-109990,77685,12469453,-28.482693730261605,68.76050373582568,0,
1756903069.7811062,0.5618002414703369,128,-110160,78230,12469485,-87.36516268365531,68.80714512113735,0,
1756903069.7811062,0.5618002414703369,128,-110265,77765,12469517,-155.31699586947045,69.02402301679366,0,
1756903069.7821102,0.5628042221069336,128,-110000,76730,12469549,-126.25046022881202,70.43246648217668,0,
1756903069.7821102,0.5628042221069336,128,-110025,77055,12469581,-129.11826066371177,70.57959020782079,0,
1756903069.7821102,0.5628042221069336,128,-110030,77915,12469613,-132.06141417518262,70.73372350579564,0,
1756903069.7831123,0.5638062953948975,128,-109925,78510,12469645,-59.049274170659174,70.44668152666216,0,
1756903069.7831123,0.5638062953948975,128,-109875,78860,12469677,-42.39387318241701,70.37635388202607,0,
1756903069.7831123,0.5638062953948975,128,-109770,78740,12469709,-6.597882552926926,70.2164629501798,0,
1756903069.7896178,0.5703117847442627,128,-109765,78740,12469741,64.8915427213708,69.46817929831627,0,
1756903069.790625,0.5713191032409668,128,-109970,78765,12469773,-72.63073480917743,69.54626774877977,0,
1756903069.790625,0.5713191032409668,128,-109715,78985,12469805,-27.43327382196732,69.44069159272784,0,
1756903069.790625,0.5713191032409668,128,-109715,79030,12469837,7.439488827687271,69.28525622591673,0,
1756903069.7916236,0.5723176002502441,128,-109595,79090,12469869,166.4835400621783,71.66473110315405,0,
1756903069.7921288,0.5728228092193604,128,-109700,78990,12469901,133.72099662203814,72.44279793504823,0,
1756903069.7921288,0.5728228092193604,128,-109680,78785,12469933,132.71611716212934,72.59390154377158,0,
1756903069.7921288,0.5728228092193604,128,-110035,78780,12469965,54.30112572905462,72.5480420411821,0,
1756903069.7931354,0.5738294124603271,128,-109850,78735,12469997,-10.866931115205901,71.02609351310875,0,
1756903069.7931354,0.5738294124603271,128,-109910,78375,12470029,-28.882726181908144,70.92044121173961,0,
1756903069.7931354,0.5738294124603271,128,-110000,78160,12470061,-62.26583229009229,70.89874433728637,0,
1756903069.794134,0.5748279094696045,128,-109820,78470,12470093,-16.50579790591896,69.56717093471083,0,
1756903069.802642,0.5833361148834229,128,-109660,78510,12470125,73.44291341146544,70.24993908343797,0,
1756903069.8036413,0.5843353271484375,128,-109535,78070,12470157,151.86806762167572,72.24939821305618,0,
1756903069.8041446,0.5848386287689209,128,-109720,77565,12470189,59.708605748606004,72.09274688495708,0,
1756903069.8041446,0.5848386287689209,128,-110020,77690,12470221,-19.858022029978088,71.96179581859019,0,
1756903069.8051488,0.5858428478240967,128,-110140,78120,12470253,-281.80676327098234,77.12764653561197,0,
1756903069.8051488,0.5858428478240967,128,-109855,78760,12470285,-239.07837979162673,77.53365271785289,0,
1756903069.806151,0.5868449211120605,128,-109895,79055,12470317,-146.36837164002804,79.22465700789692,0,
1756903069.806151,0.5868449211120605,128,-109760,79395,12470349,-109.4574474521499,79.30044980969521,0,
1756903069.8071487,0.5878427028656006,128,-109900,79010,12470381,-106.65614500306049,79.96966638356915,0,
1756903069.8081477,0.5888416767120361,128,-109875,79480,12470413,-80.81527027681295,79.9903769402951,0,
1756903069.8081477,0.5888416767120361,128,-110030,80185,12470445,-112.34387774892673,80.07148630659032,0,
1756903069.8091478,0.5898418426513672,128,-109795,79735,12470477,-22.03350192526601,78.64836352738303,0,
1756903069.8116598,0.5923538208007812,128,-109610,79600,12470509,127.13689668609577,81.52779804509127,0,
1756903069.8126605,0.5933544635772705,128,-109705,79375,12470541,68.07823851220857,81.19785419519366,0,
1756903069.813662,0.5943560600280762,128,-109655,79095,12470573,81.57224041712246,81.20704715564952,0,
1756903069.814662,0.5953559875488281,128,-109695,78890,12470605,51.72256355852273,80.4842397821492,0,
1756903069.814662,0.5953559875488281,128,-109735,78720,12470637,40.57535754336314,80.38418927549507,0,
1756903069.814662,0.5953559875488281,128,-109785,78835,12470669,20.99781618656853,80.23530921715749,0,
1756903069.8156598,0.5963537693023682,128,-109915,78560,12470701,-111.44007731133537,80.99868765974159,0,
1756903069.8156598,0.5963537693023682,128,-109890,78380,12470733,-115.91221733731874,81.08621495034384,0,
1756903069.8156598,0.5963537693023682,128,-109965,78555,12470765,-135.3646554980591,81.22228955761302,0,
1756903069.8191638,0.5998578071594238,128,-109745,78530,12470797,-2.423349359591384,74.84444756695318,0,
1756903069.8191638,0.5998578071594238,128,-109810,78545,12470829,-13.645289841715439,74.69102290573164,0,
1756903069.8191638,0.5998578071594238,128,-109735,78460,12470861,-5.921384988262296,74.51861925195612,0,
1756903069.8201702,0.6008641719818115,128,-109760,78875,12470893,-3.9070209988941733,72.7767182026293,0,
1756903069.8201702,0.6008641719818115,128,-109880,79095,12470925,-29.86446411251514,72.66913832259914,0,
1756903069.8201702,0.6008641719818115,128,-109875,79500,12470957,-48.67908939800132,72.60899590780531,0,
1756903069.8211684,0.6018624305725098,128,-109985,80275,12470989,-160.50062082974094,74.76013675545984,0,
1756903069.8211684,0.6018624305725098,128,-109785,80370,12471021,-125.1487137146702,74.8864595781384,0,
1756903069.8211684,0.6018624305725098,128,-109880,79400,12471053,-118.26888719242164,74.99521817069244,0,
1756903069.8221722,0.6028661727905273,128,-109635,77490,12471085,68.37707860134618,74.83237182210944,0,
1756903069.8221722,0.6028661727905273,128,-109570,77905,12471117,96.65595475076506,74.88708296425459,0,
1756903069.8221722,0.6028661727905273,128,-109775,79225,12471149,73.53809099733239,74.88370107726122,0,
1756903069.8271713,0.6078653335571289,128,-109730,79200,12471181,25.952870531048326,69.42211195959163,0,
1756903069.8271713,0.6078653335571289,128,-109595,79015,12471213,54.53654808629912,69.38479424674655,0,
1756903069.8271713,0.6078653335571289,128,-109750,79065,12471245,42.65283577269972,69.31777793761559,0,
1756903069.8281715,0.60886549949646,128,-109785,78920,12471277,-11.418335302939276,67.89805227699586,0,
1756903069.8281715,0.60886549949646,128,-109800,78900,12471309,-18.81465177797225,67.77500149700026,0,
1756903069.829173,0.6098670959472656,128,-109800,78485,12471341,-34.4314764296694,66.95625954163764,0,
1756903069.829173,0.6098670959472656,128,-109735,78465,12471373,-21.388173332276377,66.84202156109919,0,
1756903069.829678,0.6103720664978027,128,-109965,78325,12471405,-122.31843133995643,67.53726545261249,0,
1756903069.829678,0.6103720664978027,128,-109845,78080,12471437,-111.24994114106576,67.64685196830766,0,
1756903069.8356893,0.6163833141326904,128,-109835,77580,12471469,-39.59436877595999,63.9649636640909,0,
1756903069.840198,0.6208920478820801,128,-109825,78225,12471501,-17.901507452099263,59.276482315699475,0,
1756903069.840198,0.6208920478820801,128,-109745,78595,12471533,-0.06728926283991399,59.12804644300136,0,
1756903069.8411973,0.6218912601470947,128,-109890,78615,12471565,-53.81909631143053,58.99798919960005,0,
1756903069.8422,0.6228940486907959,128,-109795,78645,12471597,0.513056471598965,57.56023904190862,0,
1756903069.843201,0.6238949298858643,128,-109895,78535,12471629,-52.586632088566816,57.438198433506706,0,
1756903069.8442001,0.6248941421508789,128,-109850,78205,12471661,-31.03799210653728,56.791453224940284,0,
1756903069.8442001,0.6248941421508789,128,-109840,78160,12471693,-27.115887255279173,56.71705737008402,0,
1756903069.8452008,0.6258947849273682,128,-110000,78860,12471725,-120.78550479069838,58.288780975399,0,
1756903069.8482015,0.6288955211639404,128,-109910,79315,12471757,-54.24060435026462,58.004890809884095,0,
1756903069.8482015,0.6288955211639404,128,-109805,79545,12471789,-29.52791683675615,57.93349979329434,0,
1756903069.8482015,0.6288955211639404,128,-109650,79705,12471821,23.32048344293352,57.8467258816132,0,
1756903069.85071,0.631403923034668,128,-109665,80060,12471853,132.98048112066377,62.30248016418425,0,
1756903069.85071,0.631403923034668,128,-109710,80025,12471885,126.18666881025449,62.46263612653329,0,
1756903069.8517134,0.6324074268341064,128,-109800,79335,12471917,40.86717440446594,61.93137998281867,0,
1756903069.8517134,0.6324074268341064,128,-109910,76250,12471949,10.264148986876574,61.80185160846756,0,
1756903069.8517134,0.6324074268341064,128,-109955,76915,12471981,-23.121167674759878,61.70488016230828,0,
1756903069.8517134,0.6324074268341064,128,-109980,77805,12472013,-54.20355013816413,61.686074527387085,0,
1756903069.8517134,0.6324074268341064,128,-109775,77970,12472045,-33.360247044395216,61.61506243102934,0,
1756903069.852714,0.6334080696105957,128,-109900,77900,12472077,-64.26455989225761,61.68005975607291,0,
1756903069.852714,0.6334080696105957,128,-109820,77805,12472109,-49.05174666423321,61.648400910919946,0,
1756903069.852714,0.6334080696105957,128,-109770,77995,12472141,-26.320889641217704,61.559835779473396,0,
1756903069.852714,0.6334080696105957,128,-110040,77920,12472173,-67.52333702937176,61.57478611854616,0,
1756903069.8557134,0.6364073753356934,128,-109995,78290,12472205,-116.42582394502885,65.41966954907038,0,
1756903069.8557134,0.6364073753356934,128,-109945,78645,12472237,-106.4783724516191,65.52260262555652,0,
1756903069.8557134,0.6364073753356934,128,-109885,78695,12472269,-85.4673955381913,65.57260369108577,0,
1756903069.8557134,0.6364073753356934,128,-109840,78370,12472301,-59.261318497081675,65.5567814669122,0,
1756903069.8567145,0.6374084949493408,128,-109820,78335,12472333,19.595216634964743,64.42873078884375,0,
1756903069.857713,0.6384069919586182,128,-109975,78730,12472365,-65.43700660791592,64.45341401251927,0,
1756903069.857713,0.6384069919586182,128,-109995,78565,12472397,-76.16823049377555,64.48278274595803,0,
1756903069.8592155,0.6399095058441162,128,-109900,79020,12472429,-27.533318088812266,63.13825856303129,0,
1756903069.8592155,0.6399095058441162,128,-109835,79415,12472461,-10.816350190976785,63.00708892990518,0,
1756903069.8602211,0.6409151554107666,128,-109860,78965,12472493,12.494569264044504,61.76187116060958,0,
1756903069.86122,0.641913890838623,128,-109815,78920,12472525,46.370931184079595,61.38500354489283,0,
1756903069.8622236,0.6429176330566406,128,-109715,78705,12472557,116.0701380907419,62.73058932307875,0,
1756903069.863224,0.6439180374145508,128,-109735,78760,12472589,109.48577290480505,63.87731831172524,0,
1756903069.864224,0.6449179649353027,128,-109665,78650,12472621,144.86753246253286,65.862780386268,0,
1756903069.8662233,0.6469173431396484,128,-109745,78590,12472653,74.32285179121004,66.26755774433278,0,
1756903069.8672228,0.6479167938232422,128,-109885,78370,12472685,-31.86015737345936,65.42445823908825,0,
1756903069.8672228,0.6479167938232422,128,-109720,78595,12472717,-4.034496442943656,65.27055523713416,0,
1756903069.868791,0.6494851112365723,128,-109815,78485,12472749,-1.1659533073692034,62.839618897735164,0,
1756903069.8697307,0.6504247188568115,128,-109955,78385,12472781,-91.62850029350547,63.50378174070848,0,
1756903069.8717349,0.6524288654327393,128,-110025,78660,12472813,-146.60974636153412,67.48906643688059,0,
1756903069.8737352,0.6544291973114014,128,-109970,78925,12472845,-90.82462187068361,68.60607760902852,0,
1756903069.876736,0.6574299335479736,128,-109950,79535,12472877,-49.17712069508339,67.24356546965298,0,
1756903069.876736,0.6574299335479736,128,-109975,78330,12472909,-53.41617122406576,67.20890055992938,0,
1756903069.876736,0.6574299335479736,128,-109945,78210,12472941,-50.00315448314132,67.16576621199036,0,
1756903069.876736,0.6574299335479736,128,-109870,78735,12472973,-30.912276008896594,67.07487967597821,0,
1756903069.877735,0.6584289073944092,128,-109890,79010,12473005,2.8147948289502374,65.5010196889648,0,
1756903069.879277,0.6599709987640381,128,-109910,78590,12473037,-3.0484004231893262,63.17085472884474,0,
1756903069.879277,0.6599709987640381,128,-109760,78475,12473069,29.320008624336644,63.08599155770497,0,
1756903069.879277,0.6599709987640381,128,-109875,78240,12473101,29.126569715680915,63.000856190078125,0,
1756903069.879277,0.6599709987640381,128,-109820,77875,12473133,40.870655953640686,62.94537636649487,0,
1756903069.879277,0.6599709987640381,128,-109655,77685,12473165,85.7187514019513,63.00246861219819,0,
1756903069.8802834,0.6609773635864258,128,-109565,77660,12473197,241.90989433932438,67.41589417282032,0,
1756903069.8802834,0.6609773635864258,128,-109620,77640,12473229,241.22462312072346,67.85162803497411,0,
1756903069.8802834,0.6609773635864258,128,-109655,77790,12473261,232.418170780608,68.26419198205497,0,
1756903069.8802834,0.6609773635864258,128,-109710,78050,12473293,213.0295704147897,68.62711493668724,0,
1756903069.8802834,0.6609773635864258,128,-109840,78365,12473325,169.22036886676744,68.8792995496632,0,
1756903069.8812819,0.6619758605957031,128,-109910,78415,12473357,7.701098733450266,67.3816188691896,0,
1756903069.8812819,0.6619758605957031,128,-109870,78505,12473389,3.933288330226349,67.22255559152624,0,
1756903069.8812819,0.6619758605957031,128,-109885,78585,12473421,-2.2436041708192627,67.05965508800932,0,
1756903069.8812819,0.6619758605957031,128,-109935,78565,12473453,-17.87734801424629,66.93635635186064,0,
1756903069.8812819,0.6619758605957031,128,-109915,78745,12473485,-25.511224411172865,66.83250464751869,0,
1756903069.8812819,0.6619758605957031,128,-109950,79045,12473517,-38.93777789252305,66.7625733092237,0,
1756903069.8832853,0.6639792919158936,128,-109865,78990,12473549,-6.8097486522750685,63.88855707589796,0,
1756903069.88579,0.6664841175079346,128,-109790,79230,12473581,48.385366752023565,62.97038450711434,0,
1756903069.8877933,0.6684873104095459,128,-109890,79575,12473613,-22.494231660829378,61.030260070705616,0,
1756903069.8892963,0.6699903011322021,128,-109960,79495,12473645,-75.78585472835013,61.567353666926714,0,
1756903069.8913012,0.6719951629638672,128,-110005,78810,12473677,-101.89068289863408,63.50168591721713,0,
1756903069.893305,0.6739990711212158,128,-109750,77780,12473709,85.5488101564992,64.55881961239169,0,
1756903069.8953044,0.6759984493255615,128,-109845,78745,12473741,28.905562077560916,62.85296741557433,0,
1756903069.8963044,0.6769983768463135,128,-109875,78090,12473773,0.2588297918328166,61.3184821985179,0,
1756903069.8988094,0.6795034408569336,128,-109940,78245,12473805,-49.869576808440044,60.64036292334215,0,
1756903069.8998137,0.6805076599121094,128,-109735,78780,12473837,84.23327371552283,61.22116053127177,0,
1756903069.9008136,0.6815075874328613,128,-109765,78570,12473869,88.59448074287506,61.892213073906774,0,
1756903069.902814,0.6835079193115234,128,-109790,78545,12473901,57.54285267416246,61.684020722454335,0,
1756903069.9043164,0.6850104331970215,128,-109790,78495,12473933,46.40676751995636,61.12810911263671,0,
1756903069.9053202,0.6860141754150391,128,-109840,79165,12473965,8.01070655580562,59.82109904402797,0,
1756903069.907321,0.6880149841308594,128,-109850,79085,12473997,-9.334543658064412,57.40389298725777,0,
1756903069.9088247,0.6895186901092529,128,-109860,78690,12474029,-17.030398224283665,55.93365139173104,0,
1756903069.91083,0.6915240287780762,128,-109880,78675,12474061,-28.924977501044687,54.63773710555499,0,
1756903069.9213405,0.7020344734191895,128,-109845,78555,12474093,0.7163002801720104,43.370390956834235,0,
1756903069.9273431,0.7080371379852295,128,-109880,78725,12474125,-17.878320364241073,40.028707851965784,0,
1756903069.9273431,0.7080371379852295,128,-109875,78270,12474157,-16.979482819746323,39.97092405765502,0,
1756903069.9273431,0.7080371379852295,128,-109865,77935,12474189,-14.06416327323263,39.905976497191155,0,
1756903069.928846,0.7095398902893066,128,-109895,78635,12474221,-25.66215856686683,39.38759047599211,0,
1756903069.928846,0.7095398902893066,128,-109870,78260,12474253,-20.74402618545778,39.34085155602071,0,
1756903069.9298503,0.7105443477630615,128,-109775,78565,12474285,54.784280872124825,39.721117643628595,0,
1756903069.9298503,0.7105443477630615,128,-109810,79180,12474317,52.80458365864093,39.7539175450581,0,
1756903069.9308505,0.7115445137023926,128,-109870,79385,12474349,4.477387427701821,38.88891793977277,0,
1756903069.931851,0.7125449180603027,128,-109810,79715,12474381,32.27018793543577,38.726585360097815,0,
1756903069.931851,0.7125449180603027,128,-109780,79795,12474413,40.851386267419564,38.731912179477135,0,
1756903069.93285,0.7135438919067383,128,-109840,79755,12474445,18.031157780913247,38.224908662030046,0,
1756903069.93285,0.7135438919067383,128,-109760,79395,12474477,33.637913874530184,38.21340918805923,0,
1756903069.936447,0.7171409130096436,128,-109820,78760,12474509,21.092499697251405,36.79395088713454,0,
1756903069.936447,0.7171409130096436,128,-109750,78105,12474541,36.00425097465867,36.791971130450925,0,
1756903069.936447,0.7171409130096436,128,-109670,76115,12474573,64.8012064005333,36.862189538548634,0,
1756903069.9375277,0.7182216644287109,128,-109875,75970,12474605,-9.462007095230817,36.1376199857384,0,
1756903069.9390314,0.7197253704071045,128,-109850,76960,12474637,-7.769797104357176,35.10457705944233,0,
1756903069.9390314,0.7197253704071045,128,-109965,77730,12474669,-32.69571097914992,35.098538096227244,0,
1756903069.9390314,0.7197253704071045,128,-109800,77260,12474701,-15.878763623756928,35.05035463265031,0,
1756903069.9390314,0.7197253704071045,128,-109870,77760,12474733,-18.12585875559298,35.00792537148399,0,
1756903069.9390314,0.7197253704071045,128,-109885,78150,12474765,-23.071602953792645,34.978001328552104,0,
1756903069.940036,0.7207300662994385,128,-109900,78325,12474797,-42.49674945274846,35.163179555719935,0,
1756903069.9430385,0.7237324714660645,128,-109850,78360,12474829,-4.046452970418983,32.97990005868418,0,
1756903069.9430385,0.7237324714660645,128,-109895,78360,12474861,-12.84524483110336,32.92942301337952,0,
1756903069.9430385,0.7237324714660645,128,-109715,78510,12474893,19.599021100595785,32.896004050219965,0,
1756903069.9440382,0.7247321605682373,128,-109805,78620,12474925,34.22375415034872,32.92854605961529,0,
1756903069.9450371,0.7257311344146729,128,-109855,78745,12474957,1.9917520207692618,32.170841142478594,0,
1756903069.9450371,0.7257311344146729,128,-109735,78750,12474989,25.624435564925573,32.15442947775497,0,
1756903069.9450371,0.7257311344146729,128,-109865,78900,12475021,15.45015392909662,32.112552303096614,0,
1756903069.9450371,0.7257311344146729,128,-109980,78910,12475053,-17.459143321059038,32.07581659639125,0,
1756903069.9460382,0.7267322540283203,128,-109605,78805,12475085,153.7245180611545,35.06148300429579,0,
1756903069.9601548,0.7408487796783447,128,-109700,78565,12475117,45.67867720702603,37.841877539775915,0,
1756903069.9601548,0.7408487796783447,128,-109615,78680,12475149,63.46769996840192,37.90612079525153,0,
1756903069.9611566,0.7418506145477295,128,-109695,78465,12475181,47.00784749271329,38.12966332073066,0,
1756903069.9624512,0.743145227432251,128,-109645,78295,12475213,71.69279133292261,39.18730003704785,0,
1756903069.9634507,0.7441446781158447,128,-109680,78215,12475245,47.24221364814521,39.38467309072534,0,
1756903069.9634507,0.7441446781158447,128,-109810,78140,12475277,16.930397058157016,39.32838081773789,0,
1756903069.9644516,0.7451455593109131,128,-109915,77985,12475309,-123.74801004411822,41.39983982294322,0,
1756903069.9654512,0.7461452484130859,128,-109860,77655,12475341,-110.07559908542096,43.083023430260646,0,
1756903069.9654512,0.7461452484130859,128,-109775,77700,12475373,-90.21826257739504,43.201190221545794,0,
1756903069.9674518,0.7481458187103271,128,-109815,77365,12475405,-54.288205602923966,43.731956480735974,0,
1756903069.9674518,0.7481458187103271,128,-109650,77275,12475437,-16.838883021721635,43.66453626062152,0,
1756903069.9699652,0.7506592273712158,128,-109705,77465,12475469,38.30307018805755,43.34598136364906,0,
1756903069.9709647,0.7516586780548096,128,-109680,77740,12475501,56.64318900406084,43.671808629351325,0,
1756903069.9709647,0.7516586780548096,128,-109945,78055,12475533,0.21442433915790815,43.56286212240377,0,
1756903069.9709647,0.7516586780548096,128,-109815,77825,12475565,-14.931819728671051,43.49108486038001,0,
1756903069.9719687,0.7526626586914062,128,-109790,77720,12475597,-32.45451203916065,43.219455354376,0,
1756903069.9719687,0.7526626586914062,128,-109895,78135,12475629,-56.566420056622434,43.25291584000836,0,
1756903069.9719687,0.7526626586914062,128,-109825,78945,12475661,-59.73757151050976,43.29424243347155,0,
1756903069.9719687,0.7526626586914062,128,-109520,79565,12475693,4.378376712126588,43.1966813928238,0,
1756903069.9729688,0.7536628246307373,128,-109670,79545,12475725,54.39549679365286,43.47128240571124,0,
1756903069.9729688,0.7536628246307373,128,-109785,78895,12475757,33.063087523416,43.44518933787993,0,
1756903069.9729688,0.7536628246307373,128,-109730,78315,12475789,28.521421661068985,43.40777584911521,0,
1756903069.9739678,0.7546617984771729,128,-109640,78770,12475821,74.68663348465756,44.17385859844955,0,
1756903069.9759686,0.7566626071929932,128,-109700,78920,12475853,32.290679502709395,43.604913217559215,0,
1756903069.9759686,0.7566626071929932,128,-109710,79135,12475885,28.394113176356434,43.56678014628873,0,
1756903069.9759686,0.7566626071929932,128,-109800,79190,12475917,5.724780058804569,43.47191125823256,0,
1756903069.9769704,0.7576644420623779,128,-109615,77505,12475949,74.06209315597278,44.22321996520501,0,
1756903069.9789684,0.759662389755249,128,-109840,76755,12475981,-74.98000380977959,45.69379480449874,0,
1756903069.9804783,0.7611722946166992,128,-109720,77100,12476013,-1.5384838216935606,44.079448237938614,0,
1756903069.9814827,0.7621767520904541,128,-109865,77215,12476045,-85.33475369147712,45.095284376193625,0,
1756903069.9824822,0.7631762027740479,128,-109890,77370,12476077,-114.06855321174798,46.78536639934988,0,
1756903069.9834828,0.7641768455505371,128,-109750,77135,12476109,-19.442879976232064,46.11460203608874,0,
1756903069.9844823,0.7651762962341309,128,-109840,77520,12476141,-54.95189866554266,46.33114616135485,0,
1756903069.9855456,0.7662396430969238,128,-109840,77870,12476173,-58.409124824583664,46.64552623433503,0,
1756903069.9876084,0.7683024406433105,128,-109835,78220,12476205,-45.53501303180928,46.59079075088405,0,
1756903069.9876084,0.7683024406433105,128,-109765,78625,12476237,-29.69197550231036,46.54842587037053,0,
1756903069.9876084,0.7683024406433105,128,-109795,78775,12476269,-23.943689499254873,46.49175639731485,0,
1756903069.9891338,0.7698278427124023,128,-109795,78720,12476301,-6.968028767033342,45.03245991784031,0,
1756903069.9891338,0.7698278427124023,128,-109885,78680,12476333,-25.683845889423658,44.98395345692228,0,
1756903069.9891338,0.7698278427124023,128,-109835,78430,12476365,-29.138709722414124,44.94422985218161,0,
1756903069.9956527,0.7763466835021973,128,-109815,78700,12476397,-12.635694549559659,40.3960713558332,0,
1756903069.9975524,0.7782464027404785,128,-109780,78740,12476429,13.846760005803318,39.186234303317015,0,
1756903069.9975524,0.7782464027404785,128,-109555,79070,12476461,63.86133732673517,39.248094130522006,0,
1756903069.9990554,0.7797493934631348,128,-109720,78810,12476493,63.7447684093693,40.13975639077978,0,
1756903069.9993336,0.7800276279449463,128,-109735,78265,12476525,56.403447367074236,40.25269529288186,0,
1756903069.9993336,0.7800276279449463,128,-109710,78810,12476557,59.65986630279363,40.30134855459556,0,
1756903070.0000613,0.7807552814483643,128,-109580,79065,12476589,143.5484528501657,42.15561342123826,0,
1756903070.0000613,0.7807552814483643,128,-109655,79495,12476621,135.70532888092833,42.39014007054629,0,
1756903070.0000613,0.7807552814483643,128,-109775,78990,12476653,103.17341361715226,42.54252212118974,0,
1756903070.0020614,0.7827553749084473,128,-109800,77110,12476685,-9.54425318105055,40.96316172482276,0,
1756903070.0020614,0.7827553749084473,128,-109785,76535,12476717,-10.591753084966665,40.88702141089375,0,
1756903070.0020614,0.7827553749084473,128,-109780,78080,12476749,-10.280827320457767,40.81029249608274,0,
1756903070.0020614,0.7827553749084473,128,-109795,79425,12476781,-13.278600484193683,40.74127127623615,0,
1756903070.0020614,0.7827553749084473,128,-109850,79645,12476813,-27.52296689194482,40.708133338600014,0,
1756903070.0020614,0.7827553749084473,128,-109745,78670,12476845,-15.557518925054199,40.64508141698312,0,
1756903070.0020614,0.7827553749084473,128,-109820,76805,12476877,-22.629109486764357,40.59991585437227,0,
1756903070.0020614,0.7827553749084473,128,-109545,78515,12476909,31.85180407886095,40.577984570750495,0,
1756903070.0020614,0.7827553749084473,128,-109670,78955,12476941,46.49909815928571,40.592828645083245,0,
1756903070.0020614,0.7827553749084473,128,-109580,79210,12476973,77.24059111367441,40.684703611181874,0,
1756903070.0020614,0.7827553749084473,128,-109660,78465,12477005,83.28248081881682,40.79149510602914,0,
1756903070.0020614,0.7827553749084473,128,-109670,77580,12477037,85.52948407496628,40.903652054856906,0,
1756903070.003062,0.7837560176849365,128,-109445,78325,12477069,231.35945533232467,45.57590327729103,0,
1756903070.003062,0.7837560176849365,128,-109470,78905,12477101,236.50473531949464,46.05455678270387,0,
1756903070.003062,0.7837560176849365,128,-109400,78595,12477133,255.05711773666422,46.5785206459446,0,
1756903070.003062,0.7837560176849365,128,-109625,77995,12477165,219.66377010067,47.01244076424526,0,
1756903070.003062,0.7837560176849365,128,-109620,77265,12477197,192.90181352695555,47.37818154277742,0,
1756903070.003062,0.7837560176849365,128,-109325,77115,12477229,235.98714828931583,47.85101920757583,0,
1756903070.003062,0.7837560176849365,128,-109595,78190,12477261,209.73815300470082,48.256865947664316,0,
1756903070.003062,0.7837560176849365,128,-109675,78325,12477293,171.5403730810459,48.565934422120485,0,
1756903070.003062,0.7837560176849365,128,-109675,78265,12477325,141.66248780126318,48.7993250061415,0,
1756903070.003062,0.7837560176849365,128,-109795,78145,12477357,92.1496196614545,48.908003042221765,0,
1756903070.003062,0.7837560176849365,128,-109590,78000,12477389,98.40286182075346,49.03208533718401,0,
1756903070.003062,0.7837560176849365,128,-109675,78130,12477421,84.44482627189464,49.1208641371346,0,
1756903070.003062,0.7837560176849365,128,-109630,77985,12477453,83.26331374321882,49.20645835049951,0,
1756903070.0040615,0.7847554683685303,128,-109530,77930,12477485,139.2795878252506,51.41355944146927,0,
1756903070.0040615,0.7847554683685303,128,-109685,77620,12477517,109.47245135850002,51.559111539804675,0,
1756903070.0040615,0.7847554683685303,128,-109580,77700,12477549,109.08130317348134,51.70331814479979,0,
1756903070.0040615,0.7847554683685303,128,-109550,78070,12477581,115.01232223393248,51.86203213475789,0,
1756903070.0040615,0.7847554683685303,128,-109445,78475,12477613,142.12097845771208,52.08830891333684,0,
1756903070.0040615,0.7847554683685303,128,-109530,78775,12477645,144.1000238724192,52.31897983628302,0,
1756903070.0040615,0.7847554683685303,128,-109625,78765,12477677,124.54940767110722,52.50005959836403,0,
1756903070.004566,0.7852599620819092,128,-109545,78685,12477709,126.18456950665465,53.422630772132294,0,
1756903070.004566,0.7852599620819092,128,-109565,78845,12477741,121.7352245897907,53.593888628501716,0,
1756903070.004566,0.7852599620819092,128,-109565,78955,12477773,117.97664646758238,53.755294490561404,0,
1756903070.004566,0.7852599620819092,128,-109650,78530,12477805,96.25692329361819,53.86184494391484,0,
1756903070.004566,0.7852599620819092,128,-109550,77920,12477837,101.04003393064866,53.98011940930589,0,
1756903070.004566,0.7852599620819092,128,-109685,77500,12477869,75.05865851533167,54.03296274639733,0,
1756903070.004566,0.7852599620819092,128,-109775,77555,12477901,35.25848488818267,53.985895629592555,0,
1756903070.004566,0.7852599620819092,128,-109720,78055,12477933,16.492402713915876,53.89190043974981,0,
1756903070.004566,0.7852599620819092,128,-109615,78225,12477965,24.85615770130122,53.81910860472224,0,
1756903070.0055737,0.7862677574157715,128,-109550,78165,12477997,84.92914279313095,54.58761873145998,0,
1756903070.0075736,0.7882676124572754,128,-109580,78005,12478029,64.37961407561713,55.05622920321131,0,
1756903070.009078,0.7897720336914062,128,-109585,78035,12478061,50.21276724635449,54.879768802924,0,
1756903070.0120857,0.7927796840667725,128,-109605,77895,12478093,22.73949405910978,52.621010106277474,0,
1756903070.0140872,0.7947812080383301,128,-109755,77345,12478125,-85.19394229796615,54.18107470037507,0,
1756903070.016087,0.796781063079834,128,-109645,76765,12478157,-8.908916683091434,52.014508379616075,0,
1756903070.0170875,0.7977814674377441,128,-109565,77130,12478189,53.184347077751724,52.04320012766253,0,
1756903070.019086,0.7997798919677734,128,-109925,78130,12478221,-185.4517108108338,58.423313979159744,0,
1756903070.020593,0.8012869358062744,128,-109590,78380,12478253,37.82765906532913,57.67169831456151,0,
1756903070.0215964,0.8022904396057129,128,-109490,78145,12478285,134.76168196122524,59.56813970387899,0,
1756903070.0235958,0.8042898178100586,128,-109680,78125,12478317,5.944158524882482,57.00246709999645,0,
1756903070.024596,0.8052899837493896,128,-109495,78680,12478349,111.91042701969322,58.34883998586576,0,
1756903070.026596,0.8072900772094727,128,-109645,79260,12478381,16.396073764581857,56.34090018732254,0,
1756903070.0275958,0.8082897663116455,128,-109655,79250,12478413,-2.6015177714419693,55.023794289678776,0,
1756903070.031105,0.8117990493774414,128,-109555,79320,12478445,56.92760374835353,55.17809710705958,0,
1756903070.0467842,0.8274781703948975,128,-109455,79365,12478477,54.89793611228444,55.09890388785793,0,
1756903070.0477846,0.8284785747528076,128,-109510,78385,12478509,14.241961129845883,54.0968365862466,0,
1756903070.0477846,0.8284785747528076,128,-109785,75510,12478541,-48.78931281935655,54.08353076528226,0,
1756903070.0487828,0.8294768333435059,128,-109865,75970,12478573,-243.52116369893383,58.72000245013854,0,
1756903070.0487828,0.8294768333435059,128,-109845,76795,12478605,-253.5199440665104,59.2083607243267,0,
1756903070.049287,0.8299810886383057,128,-109760,77235,12478637,-217.20480648469837,61.185641194774036,0,
1756903070.049287,0.8299810886383057,128,-109765,77080,12478669,-212.15441844513487,61.564115905302835,0,
1756903070.050293,0.8309869766235352,128,-109660,76925,12478701,-113.84009420642512,62.85310385628602,0,
1756903070.050293,0.8309869766235352,128,-109705,76815,12478733,-115.79956672494627,62.98583923092914,0,
1756903070.051292,0.8319859504699707,128,-109800,76680,12478765,-173.1435237094683,65.68382464871277,0,
1756903070.051292,0.8319859504699707,128,-109595,77710,12478797,-132.46387024886525,65.85124044744911,0,
1756903070.0522962,0.8329901695251465,128,-109835,78680,12478829,-184.60956130421656,68.77476901426795,0,
1756903070.0522962,0.8329901695251465,128,-109665,78510,12478861,-151.09590911189676,68.9811459236946,0,
1756903070.053295,0.8339889049530029,128,-109605,78015,12478893,-21.51331186957711,67.8188329349822,0,
1756903070.0562947,0.8369886875152588,128,-109595,78315,12478925,20.06263143921059,64.47078009136125,0,
1756903070.0562947,0.8369886875152588,128,-109685,79095,12478957,1.4831328494326712,64.31287173447468,0,
1756903070.0562947,0.8369886875152588,128,-109470,79280,12478989,33.97698106215536,64.23682046314592,0,
1756903070.0587983,0.8394923210144043,128,-109445,79370,12479021,120.11411211894702,67.54465735284252,0,
1756903070.0587983,0.8394923210144043,128,-109525,78735,12479053,105.01955777654948,67.63860593180225,0,
1756903070.0587983,0.8394923210144043,128,-109385,78065,12479085,123.58685616163112,67.7788667075467,0,
1756903070.0598032,0.8404972553253174,128,-109615,77815,12479117,5.413703432944402,66.24252804884142,0,
1756903070.059877,0.8405709266662598,128,-109405,78120,12479149,42.05927976918475,66.18190128840135,0,
1756903070.059877,0.8405709266662598,128,-109480,76355,12479181,53.83141403136847,66.15093894522927,0,
1756903070.059877,0.8405709266662598,128,-109555,77065,12479213,46.42117600790301,66.10147695413079,0,
1756903070.062947,0.8436410427093506,128,-109530,77585,12479245,34.05080708992977,63.80558540378813,0,
1756903070.062947,0.8436410427093506,128,-109535,77565,12479277,32.55901780752772,63.7272510896246,0,
1756903070.0639453,0.8446393013000488,128,-109615,77595,12479309,-26.069396212821616,62.805577950318245,0,
1756903070.0639453,0.8446393013000488,128,-109495,77900,12479341,-4.397547099354302,62.659150569958555,0,
1756903070.0649455,0.8456394672393799,128,-109785,78055,12479373,-144.0524065390549,64.65495724515976,0,
1756903070.0649455,0.8456394672393799,128,-109665,78870,12479405,-128.28641588226975,64.81447962009605,0,
1756903070.0649455,0.8456394672393799,128,-109515,79215,12479437,-83.14438703066665,64.86043221060906,0,
1756903070.0649455,0.8456394672393799,128,-109465,79555,12479469,-37.277637978883426,64.79128287885608,0,
1756903070.0659454,0.8466393947601318,128,-109470,79565,12479501,68.97272285123603,64.89379020729305,0,
1756903070.0659454,0.8466393947601318,128,-109455,79400,12479533,80.23018024474405,64.93223812934488,0,
1756903070.080966,0.8616600036621094,128,-109555,78995,12479565,8.627940808244404,49.50193450910437,0,
1756903070.08197,0.862663984298706,128,-109445,77995,12479597,79.03745685635289,50.228855762170255,0,
1756903070.0829709,0.8636648654937744,128,-109445,77240,12479629,88.7925049895365,51.17511694807754,0,
1756903070.0829709,0.8636648654937744,128,-109585,78080,12479661,58.82405308936626,51.194292627609784,0,
1756903070.083969,0.8646631240844727,128,-109570,78375,12479693,-5.715987027063349,50.08121455053085,0,
1756903070.083969,0.8646631240844727,128,-109670,78395,12479725,-32.446514849542964,50.037004827261214,0,
1756903070.085054,0.8657479286193848,128,-109705,78675,12479757,-115.4816094630398,51.77393789837875,0,
1756903070.085054,0.8657479286193848,128,-109455,78480,12479789,-66.63752365238076,51.811200512663135,0,
1756903070.0860546,0.866748571395874,128,-109435,78175,12479821,65.36872277753076,52.14379289832503,0,
1756903070.089557,0.870250940322876,128,-109435,78040,12479853,76.65034203348421,54.126439836855944,0,
1756903070.089557,0.870250940322876,128,-109370,78115,12479885,90.83820573441433,54.218475257849235,0,
1756903070.089557,0.870250940322876,128,-109550,78130,12479917,62.329658408844544,54.23880977834435,0,
1756903070.0915656,0.8722596168518066,128,-109545,77620,12479949,-13.411164700754078,52.27673777717574,0,
1756903070.0915656,0.8722596168518066,128,-109715,77720,12479981,-53.284045200597994,52.27926307010343,0,
1756903070.092564,0.873258113861084,128,-109695,78500,12480013,-128.3010796012157,54.1403247619174,0,
1756903070.092564,0.873258113861084,128,-109530,79035,12480045,-97.81632198659265,54.2498193256791,0,
1756903070.092564,0.873258113861084,128,-109630,77690,12480077,-95.84692935946248,54.35410217452779,0,
1756903070.092564,0.873258113861084,128,-109410,75565,12480109,-46.177727604274004,54.333604220877945,0,
1756903070.0935643,0.874258279800415,128,-109550,76255,12480141,-18.96017313568365,53.46622855143175,0,
1756903070.0935643,0.874258279800415,128,-109740,76985,12480173,-58.173371948591935,53.47802923477241,0,
1756903070.0935643,0.874258279800415,128,-109575,78440,12480205,-52.286571874367844,53.475042282848975,0,
1756903070.0935643,0.874258279800415,128,-109380,78660,12480237,-5.16263399613743,53.3539243598301,0,
1756903070.0935643,0.874258279800415,128,-109565,78610,12480269,-9.139371800399218,53.243079652163566,0,
1756903070.0965667,0.877260684967041,128,-109425,78190,12480301,74.90114342868058,54.76269986218589,0,
1756903070.0965667,0.877260684967041,128,-109485,77310,12480333,63.79017591950762,54.78533150463428,0,
1756903070.0965667,0.877260684967041,128,-109385,77495,12480365,76.82982616955519,54.840596466628526,0,
1756903070.0975666,0.878260612487793,128,-109750,78330,12480397,-138.772739669188,56.89817945873513,0,
1756903070.101076,0.8817698955535889,128,-109675,78150,12480429,-100.98599832344098,60.471475426985144,0,
1756903070.101076,0.8817698955535889,128,-109555,78410,12480461,-73.75850678556576,60.50478566131847,0,
1756903070.102079,0.8827729225158691,128,-109645,78925,12480493,-63.51992234607897,60.578924732223626,0,
1756903070.103079,0.8837730884552002,128,-109455,78660,12480525,68.78128963963417,60.78005115774544,0,
1756903070.1040792,0.8847732543945312,128,-109550,78125,12480557,31.46506124592735,60.06123174386578,0,
1756903070.104583,0.8852770328521729,128,-109550,77920,12480589,23.073158591614188,59.5987688075217,0,
1756903070.1065874,0.8872814178466797,128,-109545,77925,12480621,18.521772900626306,57.628728937245626,0,
1756903070.1065874,0.8872814178466797,128,-109450,77485,12480653,38.976387126243736,57.58196801226379,0,
1756903070.1075873,0.8882813453674316,128,-109675,77435,12480685,-64.41902051696904,57.74957725483812,0,
1756903070.1075873,0.8882813453674316,128,-109670,77760,12480717,-71.115408509661,57.78308503841616,0,
1756903070.1121957,0.8928897380828857,128,-109615,78050,12480749,-28.475924746948728,54.74102108977482,0,
1756903070.1121957,0.8928897380828857,128,-109525,78375,12480781,-8.093991465762272,54.62407822678336,0,
1756903070.1121957,0.8928897380828857,128,-109600,78705,12480813,-8.70611056946387,54.50896310275772,0,
1756903070.11306,0.8937540054321289,128,-109585,78825,12480845,0.11475984502803271,53.35256307685016,0,
1756903070.11306,0.8937540054321289,128,-109470,78740,12480877,25.934034468642917,53.283825554647755,0,
1756903070.11306,0.8937540054321289,128,-109680,78510,12480909,0.02754726965385501,53.150313480993425,0,
1756903070.1190655,0.8997595310211182,128,-109535,78210,12480941,28.743036751539595,49.94950795215863,0,
1756903070.1190655,0.8997595310211182,128,-109585,76865,12480973,18.14827508127999,49.869783106899376,0,
1756903070.1190655,0.8997595310211182,128,-109470,76110,12481005,34.97548807321617,49.83244350526734,0,
1756903070.1190655,0.8997595310211182,128,-109550,78025,12481037,30.420330910121205,49.78377785513085,0,
1756903070.1190655,0.8997595310211182,128,-109645,78530,12481069,6.149976613164004,49.67438907557587,0,
1756903070.1190655,0.8997595310211182,128,-109405,78155,12481101,39.691777106396884,49.649362932792116,0,
1756903070.1235476,0.9042415618896484,128,-109445,77630,12481133,73.0576425849953,52.01924807234612,0,
1756903070.1235476,0.9042415618896484,128,-109430,77685,12481165,76.6962166570451,52.081112576463646,0,
1756903070.1235476,0.9042415618896484,128,-109415,77765,12481197,82.55304639553385,52.15750490434413,0,
1756903070.1235476,0.9042415618896484,128,-109440,77665,12481229,81.39428698082847,52.23080073964682,0,
1756903070.1255524,0.9062464237213135,128,-109440,78360,12481261,64.68819165703107,52.82838862400789,0,
1756903070.1255524,0.9062464237213135,128,-109480,78755,12481293,55.16227878016293,52.834239624574664,0,
1756903070.1255524,0.9062464237213135,128,-109530,79030,12481325,36.79307521470622,52.7940248519101,0,
1756903070.1255524,0.9062464237213135,128,-109595,79495,12481357,8.400353950965997,52.68273109932388,0,
1756903070.1255524,0.9062464237213135,128,-109665,79625,12481389,-28.720274299256747,52.62265785725261,0,
1756903070.1265523,0.9072463512420654,128,-109585,80105,12481421,-60.00945839065564,52.80374408433648,0,
1756903070.127552,0.9082460403442383,128,-109675,78060,12481453,-121.38558337083694,54.484625794075164,0,
1756903070.129055,0.9097490310668945,128,-109595,75810,12481485,-66.08775367150665,54.90697174648815,0,
1756903070.1310601,0.9117541313171387,128,-109785,77675,12481517,-174.9520427539366,60.66625169829472,0,
1756903070.1330645,0.9137585163116455,128,-109585,78640,12481549,-22.271417481024685,58.824847463376834,0,
1756903070.1350644,0.9157583713531494,128,-109710,77720,12481581,-85.05958895835637,60.08034995864427,0,
1756903070.1360645,0.9167585372924805,128,-109575,78435,12481613,3.2663597959131607,58.687240179934264,0,
1756903070.1380641,0.9187581539154053,128,-109510,78965,12481645,68.05869674717732,59.1356742353223,0,
1756903070.1395676,0.9202616214752197,128,-109515,78675,12481677,63.701930671088405,59.30193367092662,0,
1756903070.1415756,0.9222695827484131,128,-109465,78520,12481709,86.03957349790863,60.58644056030762,0,
1756903070.1435745,0.9242684841156006,128,-109495,77775,12481741,53.66234859706034,60.255228320538144,0,
1756903070.1465764,0.9272704124450684,128,-109695,76695,12481773,-93.12083225644363,62.56087581607755,0,
1756903070.1475754,0.9282693862915039,128,-109590,76505,12481805,-27.900977300159497,61.711984508853085,0,
1756903070.1475754,0.9282693862915039,128,-109705,76415,12481837,-47.832001511488414,61.67718776052703,0,
1756903070.1520905,0.9327845573425293,128,-109375,76775,12481869,121.76527018784145,67.80098111728968,0,
1756903070.1606674,0.9413614273071289,128,-109655,77545,12481901,-62.176200165429805,66.803515789031,0,
1756903070.1606674,0.9413614273071289,128,-109605,77555,12481933,-52.77300490960143,66.76834167130693,0,
1756903070.1616688,0.9423627853393555,128,-109465,77735,12481965,65.31061615525064,66.73255589544537,0,
1756903070.1616688,0.9423627853393555,128,-109620,78180,12481997,40.4697145614863,66.66671565051148,0,
1756903070.1626685,0.9433624744415283,128,-109390,78505,12482029,130.41208722167977,68.22905970936445,0,
1756903070.1626685,0.9433624744415283,128,-109510,78570,12482061,110.85996167409367,68.33593424709701,0,
1756903070.16367,0.944364070892334,128,-109475,78250,12482093,79.28316247547141,68.60474071034291,0,
1756903070.1646683,0.9453623294830322,128,-109645,78090,12482125,-46.09269834242119,68.05376018239411,0,
1756903070.1646683,0.9453623294830322,128,-109580,78295,12482157,-41.48664607163413,67.98715713369894,0,
1756903070.165668,0.9463620185852051,128,-109570,78490,12482189,-20.81388737541091,66.83098099216926,0,
1756903070.165668,0.9463620185852051,128,-109475,78570,12482221,1.515252889475434,66.66723619846499,0,
1756903070.166669,0.9473628997802734,128,-109405,78490,12482253,99.16821217051405,67.46473365222336,0,
1756903070.1701775,0.950871467590332,128,-109455,78535,12482285,61.83502253218581,67.00853380647978,0,
1756903070.1701775,0.950871467590332,128,-109375,79200,12482317,78.26147376817312,67.0367446277646,0,
1756903070.171177,0.9518709182739258,128,-109485,79130,12482349,37.75219790292983,66.31917263485349,0,
1756903070.172181,0.9528748989105225,128,-109380,78660,12482381,94.15961230082905,67.00437491602395,0,
1756903070.172181,0.9528748989105225,128,-109360,78655,12482413,102.58135573158653,67.09356546098894,0,
1756903070.1731806,0.9538745880126953,128,-109540,78405,12482445,-4.45030845232894,65.5582332791785,0,
1756903070.1731806,0.9538745880126953,128,-109550,78190,12482477,-14.857963959663806,65.4311290520401,0,
1756903070.1731806,0.9538745880126953,128,-109605,77610,12482509,-34.80291010703057,65.35434492150428,0,
1756903070.1731806,0.9538745880126953,128,-109585,77775,12482541,-45.70969948222702,65.30509631771025,0,
1756903070.176181,0.9568750858306885,128,-109670,77855,12482573,-114.78977088264544,68.77509672658728,0,
1756903070.1771815,0.9578754901885986,128,-109485,78105,12482605,10.75256824593697,67.35202210028353,0,
1756903070.1771815,0.9578754901885986,128,-109490,77510,12482637,19.296379535636472,67.23154788210286,0,
1756903070.1771815,0.9578754901885986,128,-109595,76945,12482669,2.9645537469702177,67.07043223657098,0,
1756903070.1771815,0.9578754901885986,128,-109535,77875,12482701,3.4436199934906404,66.91092151002098,0,
1756903070.1781807,0.9588747024536133,128,-109605,78315,12482733,-41.661102377282035,66.29235817990848,0,
1756903070.1781807,0.9588747024536133,128,-109470,78500,12482765,-15.634991074183251,66.16536150747935,0,
1756903070.179277,0.9599709510803223,128,-109595,78605,12482797,-36.10084822679981,65.35924205114235,0,
1756903070.179277,0.9599709510803223,128,-109570,78925,12482829,-31.997294895248558,65.27560453666766,0,
1756903070.1797814,0.9604754447937012,128,-109705,79480,12482861,-97.48373290038384,65.67886827318942,0,
1756903070.1918797,0.9725737571716309,128,-109620,79925,12482893,-25.27979838742901,56.259165579093676,0,
1756903070.1928806,0.9735746383666992,128,-109640,80115,12482925,-34.93443699047755,55.73590693091846,0,
1756903070.1938806,0.9745745658874512,128,-109525,79090,12482957,41.17651700602151,55.37898582844383,0,
1756903070.1938806,0.9745745658874512,128,-109405,78845,12482989,73.04635442059454,55.42327745175499,0,
1756903070.1948807,0.9755747318267822,128,-109485,79435,12483021,88.49227724374772,56.23414721905052,0,
1756903070.1959453,0.9766392707824707,128,-109490,79415,12483053,80.96077507079015,56.878464198920945,0,
1756903070.196881,0.9775750637054443,128,-109495,76635,12483085,69.90687349421191,57.17783889045299,0,
1756903070.196881,0.9775750637054443,128,-109460,74650,12483117,76.42519105974051,57.22609149058259,0,
1756903070.1993847,0.9800786972045898,128,-109740,76395,12483149,-110.86126202507322,60.40119877337691,0,
1756903070.2003908,0.9810848236083984,128,-109700,78020,12483181,-92.75866921821694,61.19923322276251,0,
1756903070.2003908,0.9810848236083984,128,-109565,78245,12483213,-61.732170430772626,61.20056928217297,0,
1756903070.202393,0.9830870628356934,128,-109565,78245,12483245,23.32699591840222,59.38601591828792,0,
1756903070.202393,0.9830870628356934,128,-109670,77555,12483277,3.6769363342307955,59.24635473699322,0,
1756903070.202393,0.9830870628356934,128,-109800,76710,12483309,-39.76087667434836,59.19750516158039,0,
1756903070.202393,0.9830870628356934,128,-109685,77220,12483341,-48.061258079704054,59.16958688624256,0,
1756903070.202393,0.9830870628356934,128,-109750,78710,12483373,-68.4698298583086,59.192902348093746,0,
1756903070.2038968,0.9845907688140869,128,-109555,78505,12483405,23.969698507122416,57.910213799115176,0,
1756903070.2038968,0.9845907688140869,128,-109570,78465,12483437,25.371795222256978,57.82864084889171,0,
1756903070.2038968,0.9845907688140869,128,-109640,78590,12483469,11.143899157225459,57.71160344274936,0,
1756903070.2038968,0.9845907688140869,128,-109565,78615,12483501,16.485694770621837,57.608251185844644,0,
1756903070.2038968,0.9845907688140869,128,-109610,78830,12483533,10.757430441712302,57.49079742393356,0,
1756903070.2049005,0.9855945110321045,128,-109515,78830,12483565,58.94294946770663,57.52652916628168,0,
1756903070.2049005,0.9855945110321045,128,-109465,78680,12483597,73.36196799855306,57.56622819039314,0,
1756903070.2049005,0.9855945110321045,128,-109450,78940,12483629,87.52782892208945,57.64134112679258,0,
1756903070.2069016,0.9875955581665039,128,-109440,79075,12483661,113.39400956153546,60.310982116642734,0,
1756903070.207901,0.9885950088500977,128,-109475,78805,12483693,84.08132141121123,60.893437085129975,0,
1756903070.207901,0.9885950088500977,128,-109440,78770,12483725,89.21226469266892,60.96443163298608,0,
1756903070.207901,0.9885950088500977,128,-109405,78250,12483757,100.5375441602662,61.06364037390108,0,
1756903070.2104888,0.991182804107666,128,-109520,77655,12483789,29.07869863099141,59.110425267731905,0,
1756903070.2114904,0.9921844005584717,128,-109470,77030,12483821,53.08624934017648,58.9625031278737,0,
1756903070.21249,0.9931840896606445,128,-109555,75470,12483853,-1.506508013531466,57.55430625961702,0,
1756903070.213078,0.993772029876709,128,-109635,75140,12483885,-59.186626854077495,57.57807510386894,0,
1756903070.213078,0.993772029876709,128,-109710,77335,12483917,-82.90429679710351,57.641567268266876,0,
1756903070.213078,0.993772029876709,128,-109650,78465,12483949,-87.8767280940118,57.71736601254854,0,
1756903070.219083,0.99977707862854,128,-109615,78480,12483981,-42.81280639046676,55.76289537676404,0,
1756903070.219083,0.99977707862854,128,-109550,78305,12484013,-27.96838419119085,55.693215276237005,0,
1756903070.219083,0.99977707862854,128,-109575,78655,12484045,-21.90522478110875,55.608509682438715,0,
1756903070.219083,0.99977707862854,128,-109520,78545,12484077,-5.204558535871431,55.48214831708123,0,
1756903070.225502,1.0061960220336914,128,-109475,78595,12484109,51.59235409060268,54.94179724467181,0,
1756903070.2265007,1.0071947574615479,128,-109470,78625,12484141,52.677844056059456,54.88636134266792,0,
1756903070.2265007,1.0071947574615479,128,-109615,78880,12484173,21.053051855343373,54.80154213536116,0,
1756903070.2265007,1.0071947574615479,128,-109320,78805,12484205,60.864563401777616,54.816741968469245,0,
1756903070.2265007,1.0071947574615479,128,-109370,78715,12484237,80.46485525173058,54.881041106524755,0,
1756903070.2275002,1.0081942081451416,128,-109460,78345,12484269,60.26413329481435,55.012945357113665,0,
1756903070.2290037,1.009697675704956,128,-109445,78040,12484301,57.85761617450797,55.11652109168599,0,
1756903070.2290037,1.009697675704956,128,-109415,77745,12484333,64.10667071372946,55.13905915775359,0,
1756903070.2290037,1.009697675704956,128,-109485,77645,12484365,53.504508406344385,55.134961382480114,0,
1756903070.230009,1.0107030868530273,128,-109430,77740,12484397,60.56009121506537,55.26866894655719,0,
1756903070.230009,1.0107030868530273,128,-109350,77225,12484429,78.34954145536422,55.3265320802503,0,
1756903070.230009,1.0107030868530273,128,-109270,77255,12484461,109.24621347688816,55.46170728786661,0,
1756903070.230009,1.0107030868530273,128,-109475,77960,12484493,88.10936113064795,55.54355408799734,0,
1756903070.230009,1.0107030868530273,128,-109580,78065,12484525,48.73802656407071,55.52649281144383,0,
1756903070.230009,1.0107030868530273,128,-109545,78210,12484557,25.911529819781254,55.45224888664206,0,
1756903070.2310133,1.0117073059082031,128,-109470,77885,12484589,20.000105785968433,54.5795070664308,0,
1756903070.2310133,1.0117073059082031,128,-109570,78025,12484621,-2.2763463257094827,54.448384433117965,0,
1756903070.2310133,1.0117073059082031,128,-109660,78840,12484653,-39.012532647828884,54.409687163108856,0,
1756903070.2310133,1.0117073059082031,128,-109475,78780,12484685,-26.917378691586308,54.340764676750815,0,
1756903070.2310133,1.0117073059082031,128,-109510,78260,12484717,-25.150620761331588,54.26758576207787,0,
1756903070.2310133,1.0117073059082031,128,-109440,78275,12484749,-8.483614976449775,54.15280656464678,0,
1756903070.2310133,1.0117073059082031,128,-109575,78775,12484781,-25.015925185736528,54.07976117773669,0,
1756903070.2310133,1.0117073059082031,128,-109565,78805,12484813,-35.498937051235686,54.033179545688355,0,
1756903070.2310133,1.0117073059082031,128,-109445,78385,12484845,-17.350508164597773,53.94121706387427,0,
1756903070.2310133,1.0117073059082031,128,-109460,77630,12484877,-6.5957721650830194,53.82252329235878,0,
1756903070.2310133,1.0117073059082031,128,-109450,78685,12484909,3.8792409706446342,53.6973168114967,0,
1756903070.2330184,1.0137124061584473,128,-109490,79125,12484941,1.211084623206594,51.179238374364296,0,
1756903070.2330184,1.0137124061584473,128,-109530,78530,12484973,-7.6020905428521495,51.06999162340299,0,
1756903070.2330184,1.0137124061584473,128,-109530,77740,12485005,-14.366596173222128,50.97797718689872,0,
1756903070.2330184,1.0137124061584473,128,-109465,78510,12485037,-5.385773077204233,50.8636787434254,0,
1756903070.2330184,1.0137124061584473,128,-109485,79335,12485069,-2.8103722216484677,50.743210381642086,0,
1756903070.2330184,1.0137124061584473,128,-109530,79160,12485101,-10.615711041539655,50.64261180772767,0,
1756903070.2330184,1.0137124061584473,128,-109560,75885,12485133,-23.126594534808678,50.57362988403491,0,
1756903070.2330184,1.0137124061584473,128,-109670,76330,12485165,-56.6408977752541,50.58884036331846,0,
1756903070.2330184,1.0137124061584473,128,-109590,77040,12485197,-64.87393673416618,50.624652720100464,0,
1756903070.2330184,1.0137124061584473,128,-109495,77575,12485229,-50.355021001857374,50.62397676055194,0,
1756903070.2330184,1.0137124061584473,128,-109770,78705,12485261,-98.90255793629194,50.74500987990302,0,
1756903070.2330184,1.0137124061584473,128,-109555,78930,12485293,-89.20662414261187,50.84143212422185,0,
1756903070.2345223,1.01521635055542,128,-109435,79150,12485325,27.333851883446812,49.98524905632717,0,
1756903070.2345223,1.01521635055542,128,-109355,78945,12485357,50.639883489699656,49.98689020744587,0,
1756903070.2345223,1.01521635055542,128,-109275,78230,12485389,85.85959526485885,50.07682212522231,0,
1756903070.2345223,1.01521635055542,128,-109290,75970,12485421,109.47525227302467,50.22573241028591,0,
1756903070.2345223,1.01521635055542,128,-109310,74945,12485453,123.00387038608659,50.408185267127536,0,
1756903070.2345223,1.01521635055542,128,-109260,76710,12485485,143.96739779711834,50.6427357253383,0,
1756903070.2345223,1.01521635055542,128,-109170,77910,12485517,179.30515988856936,50.9652890017708,0,
1756903070.2345223,1.01521635055542,128,-109260,78245,12485549,186.42968472218743,51.30489464004274,0,
1756903070.2345223,1.01521635055542,128,-109235,78515,12485581,196.84703845845794,51.66976492484386,0,
1756903070.2345223,1.01521635055542,128,-109235,78420,12485613,204.32892578331467,52.052477382133375,0,
1756903070.2345223,1.01521635055542,128,-109250,78450,12485645,206.26503856358167,52.43908417272996,0,
1756903070.2345223,1.01521635055542,128,-109225,78155,12485677,212.6335517746797,52.84068744367265,0,
1756903070.2345223,1.01521635055542,128,-109350,78190,12485709,189.74437198566912,53.18390134075172,0,
1756903070.2355263,1.0162203311920166,128,-109255,79140,12485741,183.24826960478694,56.38501464581308,0,
1756903070.2355263,1.0162203311920166,128,-109330,79225,12485773,165.92243868128952,56.65962205543094,0,
1756903070.2355263,1.0162203311920166,128,-109525,78660,12485805,109.68068949275016,56.79254446174406,0,
1756903070.2355263,1.0162203311920166,128,-109515,79160,12485837,68.25674620015766,56.82128491068599,0,
1756903070.2355263,1.0162203311920166,128,-109525,79720,12485869,34.000704715022344,56.76407432290114,0,
1756903070.2355263,1.0162203311920166,128,-109475,80510,12485901,18.418087736824766,56.66794195409326,0,
1756903070.2355263,1.0162203311920166,128,-109375,77550,12485933,28.13911192688369,56.59642093575469,0,
1756903070.2355263,1.0162203311920166,128,-109665,75765,12485965,-27.582343635070853,56.52368341540354,0,
1756903070.2355263,1.0162203311920166,128,-109605,76050,12485997,-57.34596036108088,56.52574484184322,0,
1756903070.2355263,1.0162203311920166,128,-109565,78215,12486029,-71.39681325875637,56.56302621496457,0,
1756903070.2355263,1.0162203311920166,128,-109515,78605,12486061,-71.1350527087118,56.59955789793563,0,
1756903070.2355263,1.0162203311920166,128,-109545,77220,12486093,-77.26949037095461,56.651376869062375,0,
1756903070.2355263,1.0162203311920166,128,-109595,76970,12486125,-92.66531367293808,56.74166285107206,0,
1756903070.2365274,1.017221450805664,128,-109695,78020,12486157,-186.39093263891414,59.92368999114011,0,
1756903070.2365274,1.017221450805664,128,-109420,77830,12486189,-133.22550387889257,60.10745568956923,0,
1756903070.2365274,1.017221450805664,128,-109485,78735,12486221,-106.07831749494261,60.22270341781766,0,
1756903070.2365274,1.017221450805664,128,-109825,80160,12486253,-158.90040785533972,60.470085799147434,0,
1756903070.2365274,1.017221450805664,128,-109765,78985,12486285,-186.07256847754536,60.7849678836368,0,
1756903070.2365274,1.017221450805664,128,-109805,78525,12486317,-215.19093924366766,61.172059548408605,0,
1756903070.2365274,1.017221450805664,128,-109615,78495,12486349,-195.66043143859562,61.509218320889204,0,
1756903070.2365274,1.017221450805664,128,-109580,77505,12486381,-172.46959233799257,61.78739302827685,0,
1756903070.2365274,1.017221450805664,128,-109635,77395,12486413,-166.11576492219248,62.04894148267686,0,
1756903070.2365274,1.017221450805664,128,-109680,78560,12486445,-170.56535274588867,62.32098924042188,0,
1756903070.2365274,1.017221450805664,128,-109820,79755,12486477,-204.0004683264946,62.67617592744159,0,
1756903070.2375264,1.0182204246520996,128,-109780,80210,12486509,-238.54291347624235,66.98350950680967,0,
1756903070.2400362,1.0207302570343018,128,-109680,80025,12486541,-129.92715576006103,70.71834045996938,0,
1756903070.2410357,1.0217297077178955,128,-109765,81080,12486573,-164.95285327883457,73.02740973803662,0,
1756903070.2430394,1.023733377456665,128,-109785,81055,12486605,-158.74769968029702,77.13713132148546,0,
1756903070.2450397,1.0257337093353271,128,-109745,80885,12486637,-103.74409803658355,78.41073627860942,0,
1756903070.2460399,1.0267338752746582,128,-109615,75750,12486669,-3.4885490844676355,76.57360371102277,0,
1756903070.2480407,1.0287346839904785,128,-109635,74630,12486701,7.599956920740798,73.27126875264787,0,
1756903070.249542,1.030236005783081,128,-109465,76210,12486733,123.70819387227327,75.10517403877384,0,
1756903070.251551,1.0322449207305908,128,-109240,77945,12486765,273.8308793171266,84.65650127622686,0,
1756903070.2535505,1.0342445373535156,128,-109175,79095,12486797,289.1926549108011,94.44377139690617,0,
1756903070.2545514,1.035245418548584,128,-109180,79250,12486829,263.8209419440835,98.59988850404588,0,
1756903070.2565515,1.037245512008667,128,-109015,79005,12486861,324.7506556623073,109.42389766360822,0,
1756903070.257551,1.0382449626922607,128,-108855,78570,12486893,410.0491200384582,116.79024831830097,0,
1756903070.2590542,1.039748191833496,128,-108870,76030,12486925,367.64611410210915,125.92262669941019,0,
1756903070.2600594,1.0407533645629883,128,-108760,75915,12486957,402.8386618114219,132.7459112796771,0,
1756903070.2620625,1.0427565574645996,128,-108720,75355,12486989,369.5513222693066,144.09659389715713,0,
1756903070.2640646,1.0447585582733154,128,-108900,76765,12487021,180.2044263431547,145.8263530655929,0,
1756903070.2650633,1.0457572937011719,128,-108910,78985,12487053,136.85554189681102,145.60669083434652,0,
1756903070.2670634,1.0477573871612549,128,-108865,78650,12487085,133.63127539232048,145.03352449906126,0,
1756903070.2705717,1.0512657165527344,128,-108935,77980,12487117,51.99576203277638,137.494742936427,0,
1756903070.2705717,1.0512657165527344,128,-108725,76865,12487149,95.77594655413574,137.39015502313808,0,
1756903070.2711346,1.0518286228179932,128,-108890,76965,12487181,86.06313759027404,136.67414203752944,0,
1756903070.2838023,1.0644962787628174,128,-108905,76940,12487213,26.720079791337454,110.121415388625,0,
1756903070.284802,1.0654959678649902,128,-108800,76330,12487245,92.33415971682622,109.68546509863245,0,
1756903070.284802,1.0654959678649902,128,-108850,76540,12487277,86.25054012758415,109.62671436483024,0,
1756903070.2858806,1.0665745735168457,128,-108885,76960,12487309,41.01713617701572,107.81591199245385,0,
1756903070.2858806,1.0665745735168457,128,-108960,77260,12487341,21.349793504441124,107.59914373241138,0,
1756903070.2869546,1.0676486492156982,128,-108795,77525,12487373,82.70011339197058,106.94467473112647,0,
1756903070.2869546,1.0676486492156982,128,-108840,77935,12487405,77.07567715140534,106.86979394836685,0,
1756903070.2879562,1.068650245666504,128,-108885,78030,12487437,28.111294255388252,104.93589859957439,0,
1756903070.2879562,1.068650245666504,128,-109010,78025,12487469,-2.940047926676069,104.68019771385715,0,
1756903070.2889552,1.0696492195129395,128,-108870,78225,12487501,17.103926181350865,102.53527696087424,0,
1756903070.2889552,1.0696492195129395,128,-108980,78460,12487533,-5.3434661855120815,102.29161967544778,0,
1756903070.289458,1.0701520442962646,128,-109020,78110,12487565,-71.0822479678708,101.90213747744131,0,
1756903070.289458,1.0701520442962646,128,-108835,77815,12487597,-40.68166717745175,101.74865938616155,0,
1756903070.293467,1.0741610527038574,128,-108785,78175,12487629,68.09937011611319,98.6685856034346,0,
1756903070.293467,1.0741610527038574,128,-109145,78375,12487661,-8.36455697169653,98.44219580470619,0,
1756903070.293467,1.0741610527038574,128,-108960,78855,12487693,-26.939798533413132,98.26294119589069,0,
1756903070.2954664,1.0761604309082031,128,-108880,78795,12487725,-12.630206618824257,94.16578995367783,0,
1756903070.2954664,1.0761604309082031,128,-108940,78275,12487757,-25.10575275304948,93.99265827662072,0,
1756903070.2969718,1.0776658058166504,128,-109110,77735,12487789,-167.67679383317824,96.67881005436985,0,
1756903070.2969718,1.0776658058166504,128,-109195,78615,12487821,-193.0129717185883,96.92031723627831,0,
1756903070.2969718,1.0776658058166504,128,-109365,78440,12487853,-248.9979157238865,97.30157173216696,0,
1756903070.2969718,1.0776658058166504,128,-109335,76205,12487885,-284.88926705928395,97.77184909667099,0,
1756903070.2979777,1.0786716938018799,128,-109570,75510,12487917,-498.9701823670724,107.66434339990974,0,
1756903070.3004847,1.0811786651611328,128,-109315,75070,12487949,-274.43975703915817,117.54953539147685,0,
1756903070.3004847,1.0811786651611328,128,-109345,76450,12487981,-273.32413322360685,117.94005816642445,0,
1756903070.3014836,1.0821776390075684,128,-109235,76745,12488013,-176.0436673108684,119.36313355997858,0,
1756903070.3014836,1.0821776390075684,128,-109170,77150,12488045,-153.9151943454358,119.44975465767922,0,
1756903070.3014836,1.0821776390075684,128,-109140,77075,12488077,-129.92679197542458,119.47602031166579,0,
1756903070.3024843,1.0831782817840576,128,-109260,76905,12488109,-142.27932447877913,120.03542970711023,0,
1756903070.3024843,1.0831782817840576,128,-109435,77975,12488141,-180.9354617586573,120.18810446822113,0,
1756903070.3024843,1.0831782817840576,128,-109480,79510,12488173,-219.9978744326015,120.43832490772677,0,
1756903070.3024843,1.0831782817840576,128,-109480,79655,12488205,-249.47038571677155,120.76180485340223,0,
1756903070.3039885,1.0846824645996094,128,-109405,80290,12488237,-237.26994785905003,125.00586297695759,0,
1756903070.3115861,1.0922801494598389,128,-109275,79675,12488269,-61.58708592340133,114.8376359651783,0,
1756903070.3167706,1.0974645614624023,128,-109415,77255,12488301,-113.56565332053853,114.6910044213327,0,
1756903070.3177707,1.0984647274017334,128,-109245,77170,12488333,5.041559637312986,112.00234070802527,0,
1756903070.3187723,1.099466323852539,128,-109320,77655,12488365,-17.074949466072933,109.6714222533638,0,
1756903070.3192756,1.0999696254730225,128,-109425,77720,12488397,-78.79021883096588,109.28567457887429,0,
1756903070.3202791,1.100973129272461,128,-109645,77910,12488429,-245.1946520862062,112.62908442192304,0,
1756903070.3202791,1.100973129272461,128,-109340,77515,12488461,-190.89671644170642,112.82529929437536,0,
1756903070.3212793,1.101973295211792,128,-109410,77095,12488493,-95.0590612368017,112.38966152455838,0,
1756903070.3222826,1.1029765605926514,128,-109495,76950,12488525,-120.74806334105021,112.5952335716412,0,
1756903070.3242826,1.1049766540527344,128,-109555,77175,12488557,-147.0328424700503,114.24348353706782,0,
1756903070.3242826,1.1049766540527344,128,-109480,77950,12488589,-131.31602500383667,114.28628394459123,0,
1756903070.3252828,1.1059768199920654,128,-109570,78755,12488621,-143.0691054106704,114.99205430024497,0,
1756903070.3272839,1.1079778671264648,128,-109445,79325,12488653,-36.58084919254462,111.23743998139709,0,
1756903070.3272839,1.1079778671264648,128,-109585,79895,12488685,-62.859581523943326,111.11615797654039,0,
1756903070.3272839,1.1079778671264648,128,-109560,79890,12488717,-77.47760402024844,111.03182701617166,0,
1756903070.3272839,1.1079778671264648,128,-109505,80160,12488749,-76.54744915075537,110.94537559775198,0,
1756903070.3272839,1.1079778671264648,128,-109510,79005,12488781,-76.71034883132543,110.85954929590758,0,
1756903070.3287868,1.109480857849121,128,-109490,76645,12488813,-53.61929830250091,108.77604314329587,0,
1756903070.3287868,1.109480857849121,128,-109430,77625,12488845,-39.22866870807722,108.60168972474922,0,
1756903070.3287868,1.109480857849121,128,-109465,79110,12488877,-35.66093655642115,108.41882919594362,0,
1756903070.3287868,1.109480857849121,128,-109335,78260,12488909,-4.517483539823111,108.15835128496776,0,
1756903070.3297904,1.1104843616485596,128,-109575,74745,12488941,-89.4049687112836,107.69701131289762,0,
1756903070.3297904,1.1104843616485596,128,-109625,76825,12488973,-106.55737002626206,107.69415426249341,0,
1756903070.3327951,1.1134891510009766,128,-109225,78340,12489005,139.9586635874697,109.95963844021836,0,
1756903070.3327951,1.1134891510009766,128,-109290,77720,12489037,131.74263429394415,110.0142478316458,0,
1756903070.3327951,1.1134891510009766,128,-109275,77590,12489069,128.3219739363212,110.0601448142147,0,
1756903070.3327951,1.1134891510009766,128,-109540,78270,12489101,67.65076023360743,109.9538256146743,0,
1756903070.3337958,1.1144897937774658,128,-109395,78540,12489133,16.400291110666252,107.65877548531394,0,
1756903070.3358817,1.1165757179260254,128,-109460,77790,12489165,-42.81793058019836,104.4288248551708,0,
1756903070.3379762,1.1186702251434326,128,-109455,77630,12489197,-38.599110480691216,101.13679677824109,0,
1756903070.3379762,1.1186702251434326,128,-109355,77215,12489229,-16.569915010224353,100.92478985415774,0,
1756903070.3394787,1.1201727390289307,128,-109490,77325,12489261,-53.310593256147556,99.19219536677666,0,
1756903070.3394787,1.1201727390289307,128,-109380,77325,12489293,-31.10200959028494,99.02149508145294,0,
1756903070.3429852,1.1236791610717773,128,-109440,77745,12489325,-10.766263663788703,91.87381149623795,0,
1756903070.3429852,1.1236791610717773,128,-109235,76275,12489357,34.33518682612923,91.72956369405743,0,
1756903070.3429852,1.1236791610717773,128,-109475,75465,12489389,16.720588652649035,91.541518188007,0,
1756903070.3449895,1.1256835460662842,128,-109610,77465,12489421,-120.10307687403565,92.91132160538059,0,
1756903070.34699,1.1276841163635254,128,-109715,77920,12489453,-187.2950194273975,97.42973170028039,0,
1756903070.3479896,1.1286835670471191,128,-109585,78170,12489485,-94.34701554143442,97.35419456465497,0,
1756903070.3525023,1.1331963539123535,128,-109210,78240,12489517,178.68243463806476,105.63871824961235,0,
1756903070.3535023,1.1341962814331055,128,-109370,78205,12489549,72.99004241306328,104.83834121224824,0,
1756903070.3535023,1.1341962814331055,128,-109315,77865,12489581,76.62517662649097,104.76761155877831,0,
1756903070.3535023,1.1341962814331055,128,-109405,77760,12489613,59.622595209629075,104.65443420313062,0,
1756903070.355503,1.1361970901489258,128,-109395,77680,12489645,15.399196659605657,100.38105292093971,0,
1756903070.355503,1.1361970901489258,128,-109125,77240,12489677,72.43040345503348,100.31098138589536,0,
1756903070.355503,1.1361970901489258,128,-109275,76880,12489709,83.4880432167474,100.2688067272025,0,
1756903070.3565023,1.1371963024139404,128,-109245,76840,12489741,121.95692121380412,100.80011636748817,0,
1756903070.3565023,1.1371963024139404,128,-109190,77030,12489773,136.5600684205396,100.88976561648062,0,
1756903070.3565023,1.1371963024139404,128,-109080,77135,12489805,171.37491556111382,101.06647001329529,0,
1756903070.3565023,1.1371963024139404,128,-109220,77475,12489837,167.23427393621282,101.23235093842541,0,
1756903070.357503,1.1381969451904297,128,-109290,77605,12489869,97.87841991451741,101.15007248821938,0,
1756903070.357503,1.1381969451904297,128,-109290,77805,12489901,92.27436528946451,101.12782132626411,0,
1756903070.3590066,1.1397006511688232,128,-109390,77845,12489933,-1.1858435616124865,97.48833324846824,0,
1756903070.3590066,1.1397006511688232,128,-109210,77950,12489965,33.21555034160161,97.32720309063953,0,
1756903070.3590066,1.1397006511688232,128,-109155,77945,12489997,71.58316087037923,97.26266346128958,0,
1756903070.3590066,1.1397006511688232,128,-109225,77265,12490029,85.68876015591874,97.2336479934361,0,
1756903070.3590066,1.1397006511688232,128,-109170,75960,12490061,108.28701038441807,97.26135847905763,0,
1756903070.3590066,1.1397006511688232,128,-109245,76350,12490093,109.0628812915051,97.29094458296329,0,
1756903070.3590066,1.1397006511688232,128,-109345,77200,12490125,87.59335396283241,97.26663298112331,0,
1756903070.3590066,1.1397006511688232,128,-109155,78265,12490157,112.18446830381096,97.30403159763398,0,
1756903070.3590066,1.1397006511688232,128,-109185,78315,12490189,124.27983103127602,97.37165920956727,0,
1756903070.3590066,1.1397006511688232,128,-109280,78130,12490221,112.57202921952094,97.40976613302674,0,
1756903070.3590066,1.1397006511688232,128,-109360,78980,12490253,85.83537566262721,97.38074944386346,0,
1756903070.3590066,1.1397006511688232,128,-109260,77630,12490285,86.78443843061493,97.35418477389358,0,
1756903070.3590066,1.1397006511688232,128,-109255,77070,12490317,88.36615237845591,97.33165201565679,0,
1756903070.3590066,1.1397006511688232,128,-109200,76990,12490349,101.31488567209172,97.34163787652514,0,
1756903070.3600132,1.14070725440979,128,-109410,76660,12490381,-14.969304304878762,95.30914446077284,0,
1756903070.3600132,1.14070725440979,128,-109330,76365,12490413,-6.407571119543089,95.08627058016852,0,
1756903070.3600132,1.14070725440979,128,-109405,76370,12490445,-16.124726062841688,94.88831608753497,0,
1756903070.3600132,1.14070725440979,128,-109440,76720,12490477,-31.180881507741347,94.72860324293046,0,
1756903070.3600132,1.14070725440979,128,-109380,77090,12490509,-29.626265882995696,94.56539341414455,0,
1756903070.3600132,1.14070725440979,128,-109570,78230,12490541,-69.70852572197653,94.50307790774785,0,
1756903070.3600132,1.14070725440979,128,-109440,78835,12490573,-72.07825057984189,94.44685946187998,0,
1756903070.3600132,1.14070725440979,128,-109345,79225,12490605,-53.02543673872799,94.34301705644778,0,
1756903070.3620143,1.1427083015441895,128,-109195,79705,12490637,103.64404341898484,94.78838410204791,0,
1756903070.3640149,1.1447088718414307,128,-109115,79300,12490669,159.07862276855002,97.86613661755148,0,
1756903070.3660169,1.1467108726501465,128,-109010,75405,12490701,209.85618661775143,103.23106169443464,0,
1756903070.368015,1.1487090587615967,128,-109155,74915,12490733,81.69403968405888,102.20119454168868,0,
1756903070.369518,1.150212049484253,128,-108890,77135,12490765,236.18185860431106,107.0779994658605,0,
1756903070.3705232,1.1512172222137451,128,-109230,77895,12490797,17.164312611624666,104.8625023646569,0,
1756903070.3725266,1.1532206535339355,128,-109100,78000,12490829,50.17474511096739,102.24088273271076,0,
1756903070.373527,1.1542210578918457,128,-109210,77705,12490861,-22.33337693924676,100.28105183730571,0,
1756903070.3755264,1.1562204360961914,128,-109250,77445,12490893,-63.09352905064104,98.5017917689135,0,
1756903070.3775265,1.1582205295562744,128,-109240,77500,12490925,-50.430568324768714,96.20101088097309,0,
1756903070.37903,1.1597239971160889,128,-109140,77855,12490957,25.673077743725784,93.63305734557976,0,
1756903070.381035,1.161729097366333,128,-109280,77650,12490989,-61.620462905368484,92.09722174802005,0,
1756903070.3830392,1.1637332439422607,128,-109085,77025,12491021,70.8659030350888,91.07908965687295,0,
1756903070.3870392,1.1677331924438477,128,-109300,76820,12491053,-68.07540873534528,88.97778105266573,0,
1756903070.3925493,1.1732432842254639,128,-109195,76875,12491085,9.574511718450069,79.31926834028567,0,
1756903070.402063,1.1827569007873535,128,-109320,77445,12491117,-48.1569146994421,73.30603226401534,0,
1756903070.402063,1.1827569007873535,128,-109110,77530,12491149,-2.7784671089163453,73.12922153339579,0,
1756903070.4030638,1.1837577819824219,128,-109280,77340,12491181,-8.788706972131877,71.55045674244802,0,
1756903070.4030638,1.1837577819824219,128,-109385,78130,12491213,-32.083946004252994,71.45151524938387,0,
1756903070.404566,1.1852600574493408,128,-109225,78565,12491245,24.884411718867923,69.75728168380384,0,
1756903070.404566,1.1852600574493408,128,-109325,78200,12491277,5.96739267060995,69.59736212812713,0,
1756903070.405569,1.186263084411621,128,-109320,77360,12491309,-35.17072748810678,68.75084703662144,0,
1756903070.405569,1.186263084411621,128,-109325,78275,12491341,-39.32062727124533,68.67706625817591,0,
1756903070.4065692,1.1872632503509521,128,-108995,78465,12491373,170.86158975045043,71.18268606242074,0,
1756903070.4065692,1.1872632503509521,128,-109240,76485,12491405,133.24062948544739,71.33826367655278,0,
1756903070.407569,1.188262939453125,128,-109265,75840,12491437,18.534809986391693,70.04409658447399,0,
1756903070.407569,1.188262939453125,128,-109200,77685,12491469,23.79965605939873,69.92816300164932,0,
1756903070.4110758,1.1917698383331299,128,-109380,77575,12491501,-84.5667793641233,71.11387485777173,0,
1756903070.4110758,1.1917698383331299,128,-109225,76575,12491533,-52.97329910141764,71.06839691668179,0,
1756903070.4110758,1.1917698383331299,128,-109430,76370,12491565,-73.12992201694901,71.07356510529524,0,
1756903070.41408,1.1947739124298096,128,-109475,77070,12491597,-130.7280516080301,75.26133632666293,0,
1756903070.41408,1.1947739124298096,128,-109265,77425,12491629,-86.13269244699947,75.28859052740323,0,
1756903070.4150803,1.1957743167877197,128,-109065,78220,12491661,155.74791548766896,77.26195547372171,0,
1756903070.4150803,1.1957743167877197,128,-109320,76640,12491693,118.42707618885956,77.36515533683452,0,
1756903070.4150803,1.1957743167877197,128,-109300,75455,12491725,93.72334954561262,77.40616489477559,0,
1756903070.4150803,1.1957743167877197,128,-109325,76140,12491757,69.00533053166055,77.3851042263931,0,
1756903070.4150803,1.1957743167877197,128,-109490,76990,12491789,13.8679814205017,77.22586848834565,0,
1756903070.419079,1.1997730731964111,128,-109470,76380,12491821,-97.40647446319926,79.06879950477439,0,
1756903070.419079,1.1997730731964111,128,-109380,77770,12491853,-79.69077319710472,79.0703587762837,0,
1756903070.419079,1.1997730731964111,128,-109505,79280,12491885,-93.04404701558958,79.10539044115981,0,
1756903070.4195817,1.2002756595611572,128,-109535,79560,12491917,-132.43593435381243,79.77062560280022,0,
1756903070.4195817,1.2002756595611572,128,-109465,79165,12491949,-122.87006483783574,79.87867475101173,0,
1756903070.4205854,1.2012794017791748,128,-109490,78410,12491981,-106.89407631950138,80.5434173806941,0,
1756903070.4205854,1.2012794017791748,128,-109500,76410,12492013,-107.55310668288527,80.61112995362676,0,
1756903070.4205854,1.2012794017791748,128,-109480,79125,12492045,-103.41257780558608,80.66829257713464,0,
1756903070.4205854,1.2012794017791748,128,-109505,79030,12492077,-105.38401298288014,80.73025423103716,0,
1756903070.4205854,1.2012794017791748,128,-109530,77660,12492109,-112.05568253973108,80.80878624690997,0,
1756903070.4205854,1.2012794017791748,128,-109335,77890,12492141,-74.43706489438472,80.7928125108939,0,
1756903070.4343953,1.2150893211364746,128,-109260,78615,12492173,45.76678266880879,71.76820832353316,0,
1756903070.4354835,1.2161774635314941,128,-109395,78935,12492205,-45.97300103143685,71.08153996966594,0,
1756903070.4364836,1.2171776294708252,128,-109340,74960,12492237,-25.654666149361457,69.96764844481393,0,
1756903070.4364836,1.2171776294708252,128,-109380,73145,12492269,-32.727841928196995,69.87428924002849,0,
1756903070.4375474,1.2182414531707764,128,-109235,75540,12492301,49.597053965063,69.34625859192943,0,
1756903070.4375474,1.2182414531707764,128,-109245,77005,12492333,53.242496761435156,69.30588688919573,0,
1756903070.439051,1.2197449207305908,128,-109335,77490,12492365,-6.1099793886466784,67.00489568089505,0,
