t_abs_unix,t_rel_s,exg_status,exg_ch1_24bit,exg_ch2_24bit,device_timestamp
1756894318,0,128,8310,178165,10888845
1756894318,0.013858318,128,8205,178515,10888877
1756894318,0.013910055,128,7880,178180,10888909
1756894318,0.014140129,128,7695,178105,10888941
1756894318,0.024145842,128,7785,178170,10888973
1756894318,0.031540632,128,7770,178210,10889005
1756894318,0.031540632,128,8085,178175,10889037
1756894318,0.031540632,128,8125,177950,10889069
1756894318,0.03254199,128,8515,177375,10889101
1756894318,0.03254199,128,8830,177250,10889133
1756894318,0.03254199,128,8995,177020,10889165
1756894318,0.03254199,128,9075,177110,10889197
1756894318,0.03254199,128,9305,177025,10889229
1756894318,0.03254199,128,9255,177050,10889261
1756894318,0.03254199,128,9385,177055,10889293
1756894318,0.033540487,128,9385,177090,10889325
1756894318,0.033540487,128,9330,177305,10889357
1756894318,0.033540487,128,9190,177245,10889389
1756894318,0.036539555,128,8915,177110,10889421
1756894318,0.036539555,128,8615,177440,10889453
1756894318,0.102176428,128,8375,177825,10889485
1756894318,0.104175091,128,8230,178220,10889517
1756894318,0.104175091,128,7980,178485,10889549
1756894318,0.104175091,128,7870,178515,10889581
1756894318,0.104175091,128,7890,178275,10889613
1756894318,0.104175091,128,7765,178295,10889645
1756894318,0.105176687,128,7945,178080,10889677
1756894318,0.105176687,128,8305,177775,10889709
1756894318,0.105176687,128,8460,177620,10889741
1756894318,0.1061759,128,8655,177390,10889773
1756894318,0.1061759,128,9005,177130,10889805
1756894318,0.1061759,128,9080,177000,10889837
1756894318,0.1061759,128,9155,177175,10889869
1756894318,0.1061759,128,9445,177030,10889901
1756894318,0.107175827,128,9525,177300,10889933
1756894318,0.107175827,128,9455,177420,10889965
1756894318,0.107175827,128,9285,177750,10889997
1756894318,0.107175827,128,8965,177965,10890029
1756894318,0.108176708,128,9010,178300,10890061
1756894318,0.108176708,128,8950,178365,10890093
1756894318,0.108176708,128,8615,177395,10890125
1756894318,0.108176708,128,8425,177740,10890157
1756894318,0.108176708,128,8220,178385,10890189
1756894318,0.108176708,128,8005,177915,10890221
1756894318,0.108176708,128,7900,177790,10890253
1756894318,0.108176708,128,7875,178145,10890285
1756894318,0.108176708,128,7855,178085,10890317
1756894318,0.108176708,128,8200,177680,10890349
1756894318,0.10917592,128,8265,177250,10890381
1756894318,0.10917592,128,8810,177310,10890413
1756894318,0.10917592,128,8955,176915,10890445
1756894318,0.10917592,128,9300,177055,10890477
1756894318,0.10917592,128,9295,177685,10890509
1756894318,0.10917592,128,9430,177520,10890541
1756894318,0.10917592,128,9580,177405,10890573
1756894318,0.10917592,128,9605,177705,10890605
1756894318,0.10917592,128,9785,177830,10890637
1756894318,0.10917592,128,9425,177845,10890669
1756894318,0.10917592,128,9005,178430,10890701
1756894318,0.10917592,128,9030,179455,10890733
1756894318,0.110176325,128,8890,179415,10890765
1756894318,0.110176325,128,8635,176680,10890797
1756894318,0.110176325,128,8290,176695,10890829
1756894318,0.110176325,128,8155,178080,10890861
1756894318,0.110176325,128,8195,178440,10890893
1756894318,0.110176325,128,8080,178270,10890925
1756894318,0.129838705,128,7920,178400,10890957
1756894318,0.138483047,128,8290,178250,10890989
1756894318,0.138483047,128,8360,177905,10891021
1756894318,0.138483047,128,8660,177635,10891053
1756894318,0.138483047,128,8950,177600,10891085
1756894318,0.138483047,128,9105,177175,10891117
1756894318,0.138483047,128,9320,176860,10891149
1756894318,0.138483047,128,9525,176700,10891181
1756894318,0.138483047,128,9580,177050,10891213
1756894318,0.139986038,128,9610,177490,10891245
1756894318,0.139986038,128,9535,177440,10891277
1756894318,0.139986038,128,9555,177705,10891309
1756894318,0.139986038,128,9330,177865,10891341
1756894318,0.139986038,128,9360,177955,10891373
1756894318,0.139986038,128,9055,177860,10891405
1756894318,0.139986038,128,8780,178415,10891437
1756894318,0.139986038,128,8525,178605,10891469
1756894318,0.139986038,128,8385,178690,10891501
1756894318,0.139986038,128,8295,178800,10891533
1756894318,0.139986038,128,8270,179000,10891565
1756894318,0.139986038,128,8250,178955,10891597
1756894318,0.139986038,128,8260,178125,10891629
1756894318,0.140991926,128,8205,176240,10891661
1756894318,0.140991926,128,8760,177070,10891693
1756894318,0.140991926,128,9015,177560,10891725
1756894318,0.140991926,128,9185,177365,10891757
1756894318,0.140991926,128,9500,177205,10891789
1756894318,0.140991926,128,9525,177110,10891821
1756894318,0.140991926,128,9685,177115,10891853
1756894318,0.163787603,128,9720,177475,10891885
1756894318,0.177398682,128,9685,177360,10891917
1756894318,0.177398682,128,9805,177305,10891949
1756894318,0.177398682,128,9675,177710,10891981
1756894318,0.177398682,128,9490,177965,10892013
1756894318,0.177398682,128,9230,177955,10892045
1756894318,0.178399086,128,9140,178175,10892077
1756894318,0.178399086,128,8930,178350,10892109
1756894318,0.178399086,128,8775,178685,10892141
1756894318,0.179399729,128,8660,178705,10892173
1756894318,0.179399729,128,8300,178955,10892205
1756894318,0.179399729,128,8315,178735,10892237
1756894318,0.180398941,128,8260,178845,10892269
1756894318,0.180535078,128,8520,178540,10892301
1756894318,0.180535078,128,8620,178270,10892333
1756894318,0.180535078,128,9010,176580,10892365
1756894318,0.180535078,128,9115,175330,10892397
1756894318,0.180535078,128,9305,176460,10892429
1756894318,0.180535078,128,9600,177285,10892461
1756894318,0.180535078,128,9785,177610,10892493
1756894318,0.180535078,128,9865,177390,10892525
1756894318,0.180535078,128,10010,177555,10892557
1756894318,0.180535078,128,9745,177650,10892589
1756894318,0.180535078,128,9920,177715,10892621
1756894318,0.180535078,128,9845,177755,10892653
1756894318,0.180535078,128,9535,177280,10892685
1756894318,0.180535078,128,9195,177640,10892717
1756894318,0.180535078,128,9135,177845,10892749
1756894318,0.180535078,128,8920,178090,10892781
1756894318,0.180535078,128,8680,178375,10892813
1756894318,0.180535078,128,8450,178395,10892845
1756894318,0.180535078,128,8375,178605,10892877
1756894318,0.180535078,128,8390,178590,10892909
1756894318,0.180535078,128,8300,178420,10892941
1756894318,0.180535078,128,8870,177930,10892973
1756894318,0.180535078,128,8925,178015,10893005
1756894318,0.214257956,128,9050,177825,10893037
1756894318,0.214257956,128,9730,176610,10893069
1756894318,0.245934963,128,9660,176195,10893101
1756894318,0.245934963,128,9685,176520,10893133
1756894318,0.245934963,128,9965,176625,10893165
1756894318,0.245934963,128,10030,177320,10893197
1756894318,0.245934963,128,9985,177435,10893229
1756894318,0.245934963,128,10000,177460,10893261
1756894318,0.245934963,128,9885,177415,10893293
1756894318,0.245934963,128,9720,176785,10893325
1756894318,0.245934963,128,9645,177560,10893357
1756894318,0.245934963,128,9195,177930,10893389
1756894318,0.245934963,128,9195,178240,10893421
1756894318,0.323135138,128,8940,178465,10893453
1756894318,0.323135138,128,8640,178550,10893485
1756894318,0.324141741,128,8465,179320,10893517
1756894318,0.324141741,128,8490,179585,10893549
1756894318,0.324141741,128,8350,178915,10893581
1756894318,0.324141741,128,8555,178805,10893613
1756894318,0.324141741,128,8835,177900,10893645
1756894318,0.324141741,128,9095,177775,10893677
1756894318,0.324141741,128,9210,177810,10893709
1756894318,0.325142384,128,9805,177555,10893741
1756894318,0.333141804,128,10050,177335,10893773
1756894318,0.333141804,128,10145,177440,10893805
1756894318,0.334148169,128,10065,177190,10893837
1756894318,0.334148169,128,10210,177115,10893869
1756894318,0.334148169,128,9975,177465,10893901
1756894318,0.334148169,128,10130,177775,10893933
1756894318,0.335140467,128,9905,177535,10893965
1756894318,0.335140467,128,9695,177365,10893997
1756894318,0.335140467,128,9495,178055,10894029
1756894318,0.335140467,128,9305,178500,10894061
1756894318,0.335140467,128,9240,179270,10894093
1756894318,0.336140633,128,8745,179395,10894125
1756894318,0.336140633,128,8860,179385,10894157
1756894318,0.336140633,128,8530,179330,10894189
1756894318,0.336140633,128,8535,179370,10894221
1756894318,0.337140799,128,8745,177755,10894253
1756894318,0.337140799,128,8920,175535,10894285
1756894318,0.337140799,128,9145,176655,10894317
1756894318,0.338140488,128,9450,176930,10894349
1756894318,0.338140488,128,9740,177045,10894381
1756894318,0.339146376,128,9890,177225,10894413
1756894318,0.339146376,128,10150,177190,10894445
1756894318,0.340140581,128,10295,177575,10894477
1756894318,0.340140581,128,10375,177940,10894509
1756894318,0.341141224,128,10295,176985,10894541
1756894318,0.343140364,128,10430,177195,10894573
1756894318,0.343140364,128,10295,177925,10894605
1756894318,0.343140364,128,9955,178435,10894637
1756894318,0.349140406,128,9820,178385,10894669
1756894318,0.349140406,128,9735,178735,10894701
1756894318,0.349140406,128,9705,179335,10894733
1756894318,0.349140406,128,9250,179510,10894765
1756894318,0.350140572,128,9035,179140,10894797
1756894318,0.357140779,128,8750,177675,10894829
1756894318,0.358139515,128,8925,178410,10894861
1756894318,0.358139515,128,8950,178235,10894893
1756894318,0.359140158,128,9020,178145,10894925
1756894318,0.360139608,128,9540,178240,10894957
1756894318,0.361140966,128,9655,177930,10894989
1756894318,0.361140966,128,9890,177150,10895021
1756894318,0.363139629,128,10170,176300,10895053
1756894318,0.364141226,128,10215,176590,10895085
1756894318,0.364141226,128,10560,176810,10895117
1756894318,0.364141226,128,10545,176955,10895149
1756894318,0.365141392,128,10480,176965,10895181
1756894318,0.367140293,128,10460,176915,10895213
1756894318,0.368140221,128,10445,177030,10895245
1756894318,0.368140221,128,9955,177465,10895277
1756894318,0.369139433,128,10090,177605,10895309
1756894318,0.369139433,128,9985,178250,10895341
1756894318,0.37013936,128,9725,178865,10895373
1756894318,0.37013936,128,9865,178775,10895405
1756894318,0.37114048,128,9375,178830,10895437
1756894318,0.373140335,128,9235,178925,10895469
1756894318,0.374139547,128,9110,178860,10895501
1756894318,0.374139547,128,9110,178825,10895533
1756894318,0.375139475,128,9110,178395,10895565
1756894318,0.375139475,128,9445,178290,10895597
1756894318,0.375139475,128,9605,177895,10895629
1756894318,0.376139402,128,9835,177785,10895661
1756894318,0.376139402,128,10285,177255,10895693
1756894318,0.376139402,128,10470,177420,10895725
1756894318,0.377142906,128,10570,176980,10895757
1756894318,0.377142906,128,10790,176925,10895789
1756894318,0.377142906,128,10810,177025,10895821
1756894318,0.377142906,128,10735,177630,10895853
1756894318,0.378140688,128,10830,177955,10895885
1756894318,0.378140688,128,10620,178210,10895917
1756894318,0.378140688,128,10530,178435,10895949
1756894318,0.379141569,128,10420,178535,10895981
1756894318,0.379141569,128,10175,178900,10896013
1756894318,0.379141569,128,9825,179200,10896045
1756894318,0.379141569,128,9755,177910,10896077
1756894318,0.380139828,128,9460,177340,10896109
1756894318,0.383141279,128,9410,178310,10896141
1756894318,0.383141279,128,9510,178170,10896173
1756894318,0.383141279,128,9485,178430,10896205
1756894318,0.383141279,128,9655,178345,10896237
1756894318,0.383141279,128,9845,178015,10896269
1756894318,0.384142399,128,10075,177375,10896301
1756894318,0.385140657,128,10415,176820,10896333
1756894318,0.385140657,128,10705,176870,10896365
1756894318,0.385140657,128,10860,177000,10896397
1756894318,0.385140657,128,10970,177155,10896429
1756894318,0.385140657,128,11015,177205,10896461
1756894318,0.385140657,128,10955,177250,10896493
1756894318,0.386644602,128,11105,177355,10896525
1756894318,0.387648106,128,10940,177110,10896557
1756894318,0.387648106,128,10825,177065,10896589
1756894318,0.387648106,128,10855,177860,10896621
1756894318,0.387648106,128,10580,177645,10896653
1756894318,0.387648106,128,10360,177535,10896685
1756894318,0.387648106,128,10000,178305,10896717
1756894318,0.387648106,128,9985,178575,10896749
1756894318,0.387648106,128,9575,179035,10896781
1756894318,0.387648106,128,9595,179250,10896813
1756894318,0.388649464,128,9505,178795,10896845
1756894318,0.388649464,128,9615,178740,10896877
1756894318,0.388649464,128,9960,178400,10896909
1756894318,0.388649464,128,10135,177530,10896941
1756894318,0.388649464,128,10315,177140,10896973
1756894318,0.388649464,128,10755,176955,10897005
1756894318,0.388649464,128,11030,177015,10897037
1756894318,0.388649464,128,11070,177475,10897069
1756894318,0.388649464,128,11145,177355,10897101
1756894318,0.388649464,128,11390,177465,10897133
1756894318,0.388649464,128,11325,177535,10897165
1756894318,0.388649464,128,10955,177990,10897197
1756894318,0.389649391,128,11095,178155,10897229
1756894318,0.389649391,128,10950,178385,10897261
1756894318,0.389649391,128,10780,178585,10897293
1756894318,0.389649391,128,10720,178805,10897325
1756894318,0.389649391,128,10410,179215,10897357
1756894318,0.389649391,128,10160,179915,10897389
1756894318,0.389649391,128,10100,178600,10897421
1756894318,0.389649391,128,9910,176495,10897453
1756894318,0.389649391,128,9775,177745,10897485
1756894318,0.389649391,128,9855,177760,10897517
1756894318,0.394649744,128,10100,177645,10897549
1756894318,0.394649744,128,10255,177740,10897581
1756894318,0.394649744,128,10670,177270,10897613
1756894318,0.394649744,128,10945,176975,10897645
1756894318,0.394649744,128,11135,176995,10897677
1756894318,0.394649744,128,11250,176835,10897709
1756894318,0.394649744,128,11225,176755,10897741
1756894318,0.395649672,128,11420,177180,10897773
1756894318,0.395802736,128,11510,177560,10897805
1756894318,0.395802736,128,11700,177800,10897837
1756894318,0.395802736,128,11715,177725,10897869
1756894318,0.396378517,128,11440,178060,10897901
1756894318,0.396378517,128,11245,178120,10897933
1756894318,0.396378517,128,11105,178375,10897965
1756894318,0.401382685,128,10830,178590,10897997
1756894318,0.402383089,128,10560,177875,10898029
1756894318,0.402383089,128,10430,177785,10898061
1756894318,0.402383089,128,10175,178250,10898093
1756894318,0.403381586,128,10215,178430,10898125
1756894318,0.403381586,128,9940,178740,10898157
1756894318,0.403381586,128,10115,178520,10898189
1756894318,0.403381586,128,10550,178145,10898221
1756894318,0.404382706,128,10690,177950,10898253
1756894318,0.404382706,128,10865,177685,10898285
1756894318,0.404382706,128,11240,177565,10898317
1756894318,0.405382156,128,11275,176875,10898349
1756894318,0.405382156,128,11625,175295,10898381
1756894318,0.405382156,128,11820,176810,10898413
1756894318,0.41138196,128,11940,178385,10898445
1756894318,0.41138196,128,11980,178645,10898477
1756894318,0.41138196,128,11935,178170,10898509
1756894318,0.412382364,128,11820,178275,10898541
1756894318,0.412382364,128,11605,177100,10898573
1756894318,0.413382053,128,11565,175945,10898605
1756894318,0.413382053,128,11075,177430,10898637
1756894318,0.413382053,128,10995,178680,10898669
1756894318,0.414383888,128,10905,179050,10898701
1756894318,0.415382862,128,10520,179015,10898733
1756894318,0.416382313,128,10605,178885,10898765
1756894318,0.416382313,128,10450,178810,10898797
1756894318,0.417382717,128,10465,178640,10898829
1756894318,0.418381691,128,10665,178240,10898861
1756894318,0.418381691,128,10890,177815,10898893
1756894318,0.419381618,128,11280,177945,10898925
1756894318,0.419381618,128,11450,177415,10898957
1756894318,0.420382023,128,11855,177305,10898989
1756894318,0.424892902,128,11955,177360,10899021
1756894318,0.424892902,128,12075,177225,10899053
1756894318,0.424892902,128,12160,177185,10899085
1756894318,0.427894115,128,12145,177250,10899117
1756894318,0.427894115,128,12085,177200,10899149
1756894318,0.428892136,128,12125,177475,10899181
1756894318,0.428892136,128,11910,177640,10899213
1756894318,0.42989254,128,11810,177850,10899245
1756894318,0.430894852,128,11620,178130,10899277
1756894318,0.430894852,128,11335,178320,10899309
1756894318,0.431892872,128,11140,178445,10899341
1756894318,0.431892872,128,10865,178690,10899373
1756894318,0.432893038,128,10900,178815,10899405
1756894318,0.43389535,128,10710,178785,10899437
1756894318,0.43389535,128,10855,178615,10899469
1756894318,0.434893608,128,10985,178235,10899501
1756894318,0.438892126,128,11115,178005,10899533
1756894318,0.438892126,128,11305,177630,10899565
1756894318,0.440892935,128,11760,177595,10899597
1756894318,0.440892935,128,11970,177080,10899629
1756894318,0.440892935,128,12035,177125,10899661
1756894318,0.440892935,128,12160,177195,10899693
1756894318,0.444892168,128,12335,177135,10899725
1756894318,0.444892168,128,12525,177110,10899757
1756894318,0.444892168,128,12550,177210,10899789
1756894318,0.444892168,128,12385,177360,10899821
1756894318,0.444892168,128,12355,177570,10899853
1756894318,0.445892096,128,12215,177750,10899885
1756894318,0.445892096,128,12235,177790,10899917
1756894318,0.446893215,128,11895,178235,10899949
1756894318,0.446893215,128,11780,178435,10899981
1756894318,0.446893215,128,11440,178815,10900013
1756894318,0.446893215,128,11325,178740,10900045
1756894318,0.447894335,128,11080,178650,10900077
1756894318,0.447894335,128,11205,178765,10900109
1756894318,0.447894335,128,11220,178485,10900141
1756894318,0.44869566,128,11600,178200,10900173
1756894318,0.44869566,128,11600,177855,10900205
1756894318,0.44869566,128,11815,177635,10900237
1756894318,0.44869566,128,12265,177350,10900269
1756894318,0.44869566,128,12435,177395,10900301
1756894318,0.44869566,128,12725,177240,10900333
1756894318,0.44869566,128,12805,177085,10900365
1756894318,0.44869566,128,12860,177315,10900397
1756894318,0.44869566,128,12870,177340,10900429
1756894318,0.44869566,128,13040,177330,10900461
1756894318,0.44869566,128,12915,177440,10900493
1756894318,0.44869566,128,12750,177350,10900525
1756894318,0.44869566,128,12490,177345,10900557
1756894318,0.44869566,128,12225,177715,10900589
1756894318,0.44869566,128,12135,178070,10900621
1756894318,0.44869566,128,12025,178410,10900653
1756894318,0.44869566,128,11790,178560,10900685
1756894318,0.44869566,128,11560,177795,10900717
1756894318,0.44869566,128,11590,177740,10900749
1756894318,0.44869566,128,11570,178045,10900781
1756894318,0.44869566,128,11525,178160,10900813
1756894318,0.44869566,128,11895,179055,10900845
1756894318,0.44869566,128,12235,179055,10900877
1756894318,0.44869566,128,12735,178360,10900909
1756894318,0.44869566,128,12745,178095,10900941
1756894318,0.44869566,128,12865,178120,10900973
1756894318,0.44869566,128,13000,178355,10901005
1756894318,0.44869566,128,13170,178555,10901037
1756894318,0.44869566,128,13205,177795,10901069
1756894318,0.44869566,128,13405,175525,10901101
1756894318,0.44869566,128,13110,176875,10901133
1756894318,0.44869566,128,13190,176905,10901165
1756894318,0.44869566,128,12920,177145,10901197
1756894318,0.44869566,128,12625,177650,10901229
1756894318,0.44869566,128,12750,178255,10901261
1756894318,0.452812195,128,12290,178665,10901293
1756894318,0.452812195,128,12330,177495,10901325
1756894318,0.452812195,128,11850,177345,10901357
1756894318,0.452812195,128,11965,178260,10901389
1756894318,0.453817844,128,11785,178310,10901421
1756894318,0.459816217,128,12065,178235,10901453
1756894318,0.460815668,128,12220,177830,10901485
1756894318,0.460815668,128,12420,177540,10901517
1756894318,0.460815668,128,12655,177360,10901549
1756894318,0.461815596,128,12910,176970,10901581
1756894318,0.461815596,128,13220,177050,10901613
1756894318,0.46381712,128,13245,176855,10901645
1756894318,0.46381712,128,13475,176945,10901677
1756894318,0.464886189,128,13390,176910,10901709
1756894318,0.465816975,128,13585,176655,10901741
1756894318,0.468816519,128,13575,176890,10901773
1756894318,0.468816519,128,13430,177180,10901805
1756894318,0.468816519,128,13405,177670,10901837
1756894318,0.47181654,128,13130,177805,10901869
1756894318,0.472815514,128,12980,177975,10901901
1756894318,0.472815514,128,12795,178025,10901933
1756894318,0.47381568,128,12805,178080,10901965
1756894318,0.47381568,128,12615,178495,10901997
1756894318,0.47531867,128,12380,178760,10902029
1756894318,0.47531867,128,12175,178595,10902061
1756894318,0.476321697,128,12125,178980,10902093
1756894318,0.476321697,128,12350,178885,10902125
1756894318,0.477321625,128,12590,178385,10902157
1756894318,0.477321625,128,12950,178215,10902189
1756894318,0.478322029,128,13090,178000,10902221
1756894318,0.478322029,128,13505,177675,10902253
1756894318,0.481322765,128,13545,177575,10902285
1756894318,0.481322765,128,13670,176585,10902317
1756894318,0.48332262,128,13755,175620,10902349
1756894318,0.48332262,128,13805,175920,10902381
1756894318,0.484324932,128,13860,175985,10902413
1756894318,0.484324932,128,13840,176235,10902445
1756894318,0.487321854,128,13625,177400,10902477
1756894318,0.487321854,128,13460,178520,10902509
1756894318,0.487321854,128,13325,178590,10902541
1756894318,0.488323212,128,13265,178550,10902573
1756894318,0.488323212,128,13160,178575,10902605
1756894318,0.488323212,128,12925,178725,10902637
1756894318,0.489322901,128,12685,178835,10902669
1756894318,0.489322901,128,12500,178800,10902701
1756894318,0.489322901,128,12705,178790,10902733
1756894318,0.490322351,128,12620,178370,10902765
1756894318,0.490322351,128,12965,178055,10902797
1756894318,0.490322351,128,13245,177995,10902829
1756894318,0.491177082,128,13315,177750,10902861
1756894318,0.491177082,128,13655,177380,10902893
1756894318,0.491177082,128,13860,177460,10902925
1756894318,0.491177082,128,13895,177310,10902957
1756894318,0.491177082,128,14195,177125,10902989
1756894318,0.492747545,128,14395,177075,10903021
1756894318,0.492747545,128,14325,176865,10903053
1756894318,0.492747545,128,14290,177070,10903085
1756894318,0.493751526,128,14435,177460,10903117
1756894318,0.500753164,128,14110,177765,10903149
1756894318,0.501751661,128,14160,177825,10903181
1756894318,0.50375104,128,13830,177880,10903213
1756894318,0.50375104,128,13735,178165,10903245
1756894318,0.504751921,128,13245,178415,10903277
1756894318,0.506751299,128,13280,178375,10903309
1756894318,0.506751299,128,13100,178410,10903341
1756894318,0.509751081,128,12990,178515,10903373
1756894318,0.510751724,128,13120,178455,10903405
1756894318,0.510751724,128,13255,178010,10903437
1756894318,0.511750937,128,13530,177735,10903469
1756894318,0.511750937,128,13805,177620,10903501
1756894318,0.512750864,128,13925,177440,10903533
1756894318,0.512750864,128,14335,177065,10903565
1756894318,0.513752937,128,14490,177095,10903597
1756894318,0.513752937,128,14465,176955,10903629
1756894318,0.514753342,128,14720,176850,10903661
1756894318,0.514753342,128,14780,176675,10903693
1756894318,0.515752077,128,14710,177135,10903725
1756894318,0.515752077,128,14605,177620,10903757
1756894318,0.517753601,128,14610,178065,10903789
1756894318,0.51975131,128,14380,178485,10903821
1756894318,0.51975131,128,14285,178730,10903853
1756894318,0.521752119,128,14120,178320,10903885
1756894318,0.521752119,128,13850,177635,10903917
1756894318,0.521752119,128,13680,177680,10903949
1756894318,0.522751808,128,13455,177750,10903981
1756894318,0.526752234,128,13395,178200,10904013
1756894318,0.526979208,128,13460,178285,10904045
1756894318,0.526979208,128,13460,178225,10904077
1756894318,0.526979208,128,13980,178070,10904109
1756894318,0.526979208,128,14050,177670,10904141
1756894318,0.526979208,128,14145,177510,10904173
1756894318,0.556981087,128,14450,177250,10904205
1756894318,0.556981087,128,14705,177035,10904237
1756894318,0.557981491,128,14785,176780,10904269
1756894318,0.558980942,128,15010,176770,10904301
1756894318,0.558980942,128,15200,176785,10904333
1756894318,0.561980009,128,15230,176785,10904365
1756894318,0.590954065,128,15105,176815,10904397
1756894318,0.591953754,128,15200,177115,10904429
1756894318,0.591953754,128,15090,177215,10904461
1756894318,0.59295392,128,14735,178425,10904493
1756894318,0.593953609,128,14775,179255,10904525
1756894318,0.594953537,128,14475,179240,10904557
1756894318,0.61631012,128,14380,179325,10904589
1756894318,0.61631012,128,14135,179305,10904621
1756894318,0.61631012,128,13920,179395,10904653
1756894318,0.61631012,128,13925,179130,10904685
1756894318,0.617311001,128,13740,176880,10904717
1756894318,0.617311001,128,14020,175295,10904749
1756894318,0.617311001,128,14335,176900,10904781
1756894318,0.617311001,128,14525,177100,10904813
1756894318,0.617311001,128,14795,176960,10904845
1756894318,0.617311001,128,14785,176865,10904877
1756894318,0.617311001,128,15340,177075,10904909
1756894318,0.618318081,128,15530,176880,10904941
1756894318,0.619310856,128,15560,176700,10904973
1756894318,0.619310856,128,15670,176805,10905005
1756894318,0.619310856,128,15740,177090,10905037
1756894318,0.619310856,128,15725,177165,10905069
1756894318,0.619310856,128,15520,177290,10905101
1756894318,0.621323824,128,15390,177590,10905133
1756894318,0.621323824,128,15195,177685,10905165
1756894318,0.621323824,128,15070,177860,10905197
1756894318,0.621323824,128,14790,178050,10905229
1756894318,0.621323824,128,14700,177940,10905261
1756894318,0.621323824,128,14420,177985,10905293
1756894318,0.621323824,128,14340,178275,10905325
1756894318,0.621323824,128,14370,178350,10905357
1756894318,0.621323824,128,14505,178535,10905389
1756894318,0.621323824,128,14745,178760,10905421
1756894318,0.622829914,128,14875,178700,10905453
1756894318,0.624194622,128,15010,178515,10905485
1756894318,0.624194622,128,15310,178180,10905517
1756894318,0.624194622,128,15655,177590,10905549
1756894318,0.624194622,128,15990,175935,10905581
1756894318,0.624194622,128,15995,175265,10905613
1756894318,0.624194622,128,16185,175620,10905645
1756894318,0.624194622,128,16225,176355,10905677
1756894318,0.635182619,128,16185,176520,10905709
1756894318,0.636180878,128,15930,176460,10905741
1756894318,0.637181282,128,15850,176480,10905773
1756894318,0.638180256,128,15700,177590,10905805
1756894318,0.639180899,128,15650,178125,10905837
1756894318,0.640180588,128,15420,178230,10905869
1756894318,0.641180754,128,15105,178145,10905901
1756894318,0.643180132,128,14975,178195,10905933
1756894318,0.643180132,128,14885,177995,10905965
1756894318,0.644180059,128,14715,178000,10905997
1756894318,0.647182226,128,14800,177945,10906029
1756894318,0.647182226,128,15040,177895,10906061
1756894318,0.648181677,128,15155,177750,10906093
1756894318,0.648181677,128,15465,177400,10906125
1756894318,0.649180651,128,15675,177265,10906157
1756894318,0.650181293,128,16075,176875,10906189
1756894318,0.650181293,128,16290,176920,10906221
1756894318,0.651180267,128,16275,176640,10906253
1756894318,0.651180267,128,16450,176665,10906285
1756894318,0.652181387,128,16660,176710,10906317
1756894318,0.652181387,128,16255,176875,10906349
1756894318,0.652181387,128,16515,176950,10906381
1756894318,0.653181553,128,16360,177100,10906413
1756894318,0.653181553,128,16195,177345,10906445
1756894318,0.656180143,128,15940,177955,10906477
1756894318,0.656180143,128,15960,178095,10906509
1756894318,0.656180143,128,15670,178165,10906541
1756894318,0.658179998,128,15395,178160,10906573
1756894318,0.658179998,128,15300,178125,10906605
1756894318,0.659180164,128,15270,178195,10906637
1756894318,0.659180164,128,15230,178170,10906669
1756894318,0.659180164,128,15205,178365,10906701
1756894318,0.662180901,128,15510,178010,10906733
1756894318,0.662180901,128,15540,177680,10906765
1756894318,0.663180113,128,15935,177465,10906797
1756894318,0.663180113,128,16135,176975,10906829
1756894318,0.663180113,128,16475,176715,10906861
1756894318,0.663180113,128,16725,175800,10906893
1756894318,0.663180113,128,16725,175870,10906925
1756894318,0.664181471,128,17130,176295,10906957
1756894318,0.665180445,128,17105,176775,10906989
1756894318,0.665180445,128,17040,177375,10907021
1756894318,0.665180445,128,17150,177410,10907053
1756894318,0.665180445,128,17050,177430,10907085
1756894318,0.666181564,128,16740,177775,10907117
1756894318,0.666585445,128,16700,177830,10907149
1756894318,0.666585445,128,16655,177655,10907181
1756894318,0.666585445,128,16450,177450,10907213
1756894318,0.666585445,128,16200,176680,10907245
1756894318,0.666585445,128,15870,176320,10907277
1756894318,0.66820097,128,16085,177270,10907309
1756894318,0.66820097,128,16100,177425,10907341
1756894318,0.66820097,128,16220,177550,10907373
1756894318,0.66820097,128,16665,177330,10907405
1756894318,0.66820097,128,16715,177305,10907437
1756894318,0.66820097,128,17050,176735,10907469
1756894318,0.66820097,128,17205,176785,10907501
1756894318,0.66820097,128,17470,176990,10907533
1756894318,0.66820097,128,17855,176710,10907565
1756894318,0.669205904,128,17905,176645,10907597
1756894318,0.669205904,128,17750,176655,10907629
1756894318,0.669205904,128,17820,176735,10907661
1756894318,0.669205904,128,17750,176930,10907693
1756894318,0.669205904,128,17685,176885,10907725
1756894318,0.669205904,128,17450,177125,10907757
1756894318,0.669205904,128,17495,177320,10907789
1756894318,0.669205904,128,17300,177455,10907821
1756894318,0.669205904,128,17040,177615,10907853
1756894318,0.669205904,128,16725,177855,10907885
1756894318,0.669205904,128,16590,177980,10907917
1756894318,0.669205904,128,16460,177890,10907949
1756894318,0.669205904,128,16510,177895,10907981
1756894318,0.670204163,128,16415,177745,10908013
1756894318,0.670204163,128,16870,177425,10908045
1756894318,0.670204163,128,16825,177035,10908077
1756894318,0.670204163,128,17140,176775,10908109
1756894318,0.670204163,128,17465,176105,10908141
1756894318,0.670204163,128,17705,175845,10908173
1756894318,0.670204163,128,18000,176215,10908205
1756894318,0.670204163,128,18165,176545,10908237
1756894318,0.670204163,128,18180,176470,10908269
1756894318,0.670204163,128,18335,176700,10908301
1756894318,0.670204163,128,18220,176720,10908333
1756894318,0.670204163,128,17940,176945,10908365
1756894318,0.670204163,128,18050,177310,10908397
1756894318,0.67120409,128,17950,177720,10908429
1756894318,0.67120409,128,17415,177730,10908461
1756894318,0.67120409,128,17470,178215,10908493
1756894318,0.67120409,128,17090,178720,10908525
1756894318,0.67120409,128,16925,178860,10908557
1756894318,0.67120409,128,16885,178490,10908589
1756894318,0.67120409,128,16710,176830,10908621
1756894318,0.67120409,128,16795,175685,10908653
1756894318,0.67120409,128,16885,176850,10908685
1756894318,0.67120409,128,17095,176900,10908717
1756894318,0.67120409,128,17335,176745,10908749
1756894318,0.67120409,128,17730,176560,10908781
1756894318,0.67120409,128,18050,176445,10908813
1756894318,0.67120409,128,18315,176435,10908845
1756894318,0.672205448,128,18480,176465,10908877
1756894318,0.672205448,128,18650,176310,10908909
1756894318,0.672205448,128,18625,176250,10908941
1756894318,0.672205448,128,18670,176555,10908973
1756894318,0.672205448,128,18515,176505,10909005
1756894318,0.672205448,128,18375,177085,10909037
1756894318,0.672205448,128,18320,177390,10909069
1756894318,0.672205448,128,18145,177575,10909101
1756894318,0.672205448,128,17755,177755,10909133
1756894318,0.672205448,128,17780,178010,10909165
1756894318,0.675212145,128,17620,177810,10909197
1756894318,0.676718473,128,17445,177470,10909229
1756894318,0.676821947,128,17310,176255,10909261
1756894318,0.677114487,128,17185,177125,10909293
1756894318,0.677114487,128,17355,177670,10909325
1756894318,0.677114487,128,17640,177475,10909357
1756894318,0.683115721,128,17960,177375,10909389
1756894318,0.686115503,128,18080,177195,10909421
1756894318,0.686115503,128,18355,176540,10909453
1756894318,0.687114239,128,18645,176395,10909485
1756894318,0.688113928,128,18785,176145,10909517
1756894318,0.689114332,128,18855,175505,10909549
1756894318,0.690115213,128,19020,175975,10909581
1756894318,0.693114519,128,19075,176255,10909613
1756894318,0.693114519,128,19050,176380,10909645
1756894318,0.694114208,128,18930,176850,10909677
1756894318,0.697114944,128,19080,176895,10909709
1756894318,0.697114944,128,18670,177245,10909741
1756894318,0.698115349,128,18465,177195,10909773
1756894318,0.698115349,128,18165,177430,10909805
1756894318,0.699114799,128,18115,177850,10909837
1756894318,0.700114965,128,18090,177895,10909869
1756894318,0.700114965,128,17860,177930,10909901
1756894318,0.701114416,128,17655,177950,10909933
1756894318,0.701114416,128,17845,177745,10909965
1756894318,0.702114582,128,17855,177870,10909997
1756894318,0.702114582,128,18210,176950,10910029
1756894318,0.703114986,128,18310,175295,10910061
1756894318,0.705114365,128,18535,176085,10910093
1756894318,0.706114054,128,18980,175930,10910125
1756894318,0.708114147,128,19100,176105,10910157
1756894318,0.708114147,128,19320,176135,10910189
1756894318,0.708114147,128,19505,176150,10910221
1756894318,0.708114147,128,19465,176200,10910253
1756894318,0.709113836,128,19555,176050,10910285
1756894318,0.712114334,128,19345,176310,10910317
1756894318,0.713114738,128,19570,176525,10910349
1756894318,0.713114738,128,19160,176750,10910381
1756894318,0.713114738,128,19010,176910,10910413
1756894318,0.713114738,128,18925,177150,10910445
1756894318,0.714116335,128,18645,177505,10910477
1756894318,0.716382265,128,18515,177570,10910509
1756894318,0.716382265,128,18470,177555,10910541
1756894318,0.716382265,128,18300,177330,10910573
1756894318,0.716382265,128,18460,177425,10910605
1756894318,0.716382265,128,18420,177110,10910637
1756894318,0.716382265,128,18715,176575,10910669
1756894318,0.716382265,128,18735,176735,10910701
1756894318,0.725343943,128,19005,176630,10910733
1756894318,0.73334384,128,19430,176230,10910765
1756894318,0.734344006,128,19735,175780,10910797
1756894318,0.734344006,128,19765,175315,10910829
1756894318,0.735343456,128,19890,175475,10910861
1756894318,0.736342907,128,20070,175850,10910893
1756894318,0.737342834,128,20060,176015,10910925
1756894318,0.738343477,128,20235,176215,10910957
1756894318,0.739342928,128,19805,176440,10910989
1756894318,0.739342928,128,19730,176615,10911021
1756894318,0.742343664,128,19620,176680,10911053
1756894318,0.743343592,128,19510,177095,10911085
1756894318,0.746343851,128,19315,177550,10911117
1756894318,0.746343851,128,19025,177545,10911149
1756894318,0.747345448,128,18840,177825,10911181
1756894318,0.747345448,128,18655,177845,10911213
1756894318,0.748343706,128,18850,177640,10911245
1756894318,0.748343706,128,18665,177490,10911277
1756894318,0.749343157,128,18755,176900,10911309
1756894318,0.749343157,128,19160,176270,10911341
1756894318,0.750343561,128,19120,176160,10911373
1756894318,0.750343561,128,19610,176155,10911405
1756894318,0.751343966,128,20095,175840,10911437
1756894318,0.751343966,128,20235,175875,10911469
1756894318,0.752343893,128,20255,175560,10911501
1756894318,0.752343893,128,20580,175215,10911533
1756894318,0.755343676,128,20385,175505,10911565
1756894318,0.755343676,128,20440,175520,10911597
1756894318,0.755343676,128,20415,175945,10911629
1756894318,0.757343054,128,20120,176820,10911661
1756894318,0.758343935,128,19985,177180,10911693
1756894318,0.758343935,128,19930,176990,10911725
1756894318,0.758343935,128,19745,176995,10911757
1756894318,0.758343935,128,19410,176590,10911789
1756894318,0.761343718,128,19295,176705,10911821
1756894318,0.761343718,128,19225,177350,10911853
1756894318,0.762343407,128,18990,177420,10911885
1756894318,0.762343407,128,19170,177175,10911917
1756894318,0.762343407,128,19180,177035,10911949
1756894318,0.762343407,128,19345,176765,10911981
1756894318,0.763343096,128,19535,176920,10912013
1756894318,0.763343096,128,19790,176330,10912045
1756894318,0.764345169,128,20095,176585,10912077
1756894318,0.764345169,128,20310,176590,10912109
1756894318,0.764345169,128,20570,175615,10912141
1756894318,0.764345169,128,20815,176110,10912173
1756894318,0.76534462,128,21010,176820,10912205
1756894318,0.765633345,128,20870,177095,10912237
1756894318,0.765633345,128,20865,177040,10912269
1756894318,0.765633345,128,20605,174035,10912301
1756894318,0.765633345,128,20425,175375,10912333
1756894318,0.770226002,128,20520,176220,10912365
1756894318,0.770226002,128,20460,176165,10912397
1756894318,0.770226002,128,20020,176465,10912429
1756894318,0.770226002,128,19765,176495,10912461
1756894318,0.770226002,128,19585,176480,10912493
1756894318,0.770226002,128,19510,177195,10912525
1756894318,0.770226002,128,19655,177065,10912557
1756894318,0.774218798,128,19645,176770,10912589
1756894318,0.774218798,128,19600,176835,10912621
1756894318,0.774218798,128,20090,176405,10912653
1756894318,0.774218798,128,20240,176340,10912685
1756894318,0.774218798,128,20545,176125,10912717
1756894318,0.785722971,128,20845,175775,10912749
1756894318,0.786726475,128,21050,175370,10912781
1756894318,0.786726475,128,21150,175695,10912813
1756894318,0.787726402,128,21445,175600,10912845
1756894318,0.790726185,128,21355,175645,10912877
1756894318,0.790726185,128,21375,175835,10912909
1756894318,0.793727636,128,21295,175925,10912941
1756894318,0.793727636,128,20970,176055,10912973
1756894318,0.794726849,128,20980,176370,10913005
1756894318,0.794726849,128,20965,176285,10913037
1756894318,0.795726061,128,20725,176550,10913069
1756894318,0.796726465,128,20585,176805,10913101
1756894318,0.796726465,128,20300,177210,10913133
1756894318,0.7977283,128,20115,177240,10913165
1756894318,0.7977283,128,20000,176990,10913197
1756894318,0.7977283,128,19970,177115,10913229
1756894318,0.79872632,128,20115,176960,10913261
1756894318,0.802726984,128,20305,175390,10913293
1756894318,0.802726984,128,20530,174740,10913325
1756894318,0.802726984,128,20615,175730,10913357
1756894318,0.804726362,128,21205,175605,10913389
1756894318,0.804726362,128,21270,175530,10913421
1756894318,0.805726528,128,21640,175580,10913453
1756894318,0.805726528,128,21690,175660,10913485
1756894318,0.811737537,128,21795,175560,10913517
1756894318,0.811737537,128,21770,175505,10913549
1756894318,0.811737537,128,21715,175675,10913581
1756894318,0.811737537,128,21430,175880,10913613
1756894318,0.811737537,128,21470,176040,10913645
1756894318,0.811737537,128,21460,176115,10913677
1756894318,0.813751936,128,21120,176235,10913709
1756894318,0.813751936,128,20955,176550,10913741
1756894318,0.813751936,128,20795,176475,10913773
1756894318,0.813751936,128,20690,176545,10913805
1756894318,0.814742088,128,20465,176835,10913837
1756894318,0.814742088,128,20295,176700,10913869
1756894318,0.814742088,128,20370,176685,10913901
1756894318,0.814742088,128,20700,176960,10913933
1756894318,0.814742088,128,20825,176645,10913965
1756894318,0.814742088,128,21115,176620,10913997
1756894318,0.814742088,128,21500,176490,10914029
1756894318,0.819752216,128,21745,176065,10914061
1756894318,0.819752216,128,21840,174905,10914093
1756894318,0.819752216,128,22030,173405,10914125
1756894318,0.819752216,128,22220,173800,10914157
1756894318,0.820741653,128,21980,174410,10914189
1756894318,0.82082057,128,22210,174725,10914221
1756894318,0.829137564,128,22095,174815,10914253
1756894318,0.830138206,128,21890,175230,10914285
1756894318,0.831138849,128,21920,175265,10914317
1756894318,0.832137108,128,21895,175520,10914349
1756894318,0.833138466,128,21445,176130,10914381
1756894318,0.834137917,128,21385,176045,10914413
1756894318,0.835641861,128,21055,176150,10914445
1756894318,0.835641861,128,20815,176130,10914477
1756894318,0.836645603,128,20695,176340,10914509
1756894318,0.839644909,128,20710,176805,10914541
1756894318,0.839644909,128,20755,176785,10914573
1756894318,0.840645552,128,21060,176280,10914605
1756894318,0.843645573,128,21400,175810,10914637
1756894318,0.843645573,128,21590,175470,10914669
1756894318,0.844645023,128,22065,175255,10914701
1756894318,0.845645189,128,22115,175080,10914733
1756894318,0.845645189,128,22325,175050,10914765
1756894318,0.846645117,128,22390,174980,10914797
1756894318,0.846645117,128,22735,175040,10914829
1756894318,0.847647667,128,22450,175215,10914861
1756894318,0.847647667,128,22480,175500,10914893
1756894318,0.848647356,128,22475,175575,10914925
1756894318,0.848647356,128,22405,175885,10914957
1756894318,0.849645853,128,22140,176130,10914989
1756894318,0.85264492,128,21865,175945,10915021
1756894318,0.85264492,128,21720,175325,10915053
1756894318,0.85264492,128,21495,174305,10915085
1756894318,0.854646444,128,21220,175630,10915117
1756894318,0.854646444,128,20995,177250,10915149
1756894318,0.855644941,128,21025,176945,10915181
1756894318,0.855644941,128,21380,176785,10915213
1756894318,0.858644962,128,21365,176510,10915245
1756894318,0.858644962,128,21470,176665,10915277
1756894318,0.858644962,128,22015,175755,10915309
1756894318,0.861036301,128,22130,173985,10915341
1756894318,0.861036301,128,22485,174115,10915373
1756894318,0.861036301,128,22740,174350,10915405
1756894318,0.862545013,128,22775,174260,10915437
1756894318,0.862545013,128,22840,174810,10915469
1756894318,0.862545013,128,22815,174720,10915501
1756894318,0.862545013,128,22755,175105,10915533
1756894318,0.87054801,128,22800,175745,10915565
1756894318,0.871548891,128,22850,176380,10915597
1756894318,0.872548103,128,22645,176400,10915629
1756894318,0.873549223,128,22320,176440,10915661
1756894318,0.87454915,128,22215,174195,10915693
1756894318,0.87454915,128,22035,173695,10915725
1756894318,0.875548601,128,21830,174960,10915757
1756894318,0.876548767,128,21635,175185,10915789
1756894318,0.877548218,128,21510,175210,10915821
1756894318,0.880550623,128,21550,176125,10915853
1756894318,0.880550623,128,21655,176445,10915885
1756894318,0.884057283,128,21980,175825,10915917
1756894318,0.884057283,128,21950,175725,10915949
1756894318,0.885058403,128,22400,175570,10915981
1756894318,0.886058331,128,22715,175270,10916013
1756894318,0.886058331,128,22840,174555,10916045
1756894318,0.887057543,128,23020,173165,10916077
1756894319,0.891058445,128,23130,173985,10916109
1756894319,0.892057419,128,23320,174690,10916141
1756894319,0.892057419,128,23365,174570,10916173
1756894319,0.894057512,128,23290,174555,10916205
1756894319,0.894057512,128,23080,174835,10916237
1756894319,0.894057512,128,22985,175115,10916269
1756894319,0.895057917,128,23080,175170,10916301
1756894319,0.895057917,128,22765,175315,10916333
1756894319,0.898059368,128,22520,175570,10916365
1756894319,0.898059368,128,22215,175735,10916397
1756894319,0.898059368,128,22025,175605,10916429
1756894319,0.89905858,128,22070,175705,10916461
1756894319,0.89905858,128,21940,175650,10916493
1756894319,0.89905858,128,21930,175165,10916525
1756894319,0.900057316,128,22125,175270,10916557
1756894319,0.900057316,128,22475,175135,10916589
1756894319,0.901058435,128,22630,174985,10916621
1756894319,0.901058435,128,22900,174830,10916653
1756894319,0.904177427,128,23325,174575,10916685
1756894319,0.904177427,128,23325,173650,10916717
1756894319,0.904177427,128,23350,173930,10916749
1756894319,0.904177427,128,23500,174390,10916781
1756894319,0.904177427,128,23490,174490,10916813
1756894319,0.904177427,128,23485,174465,10916845
1756894319,0.947134733,128,23425,174505,10916877
1756894319,0.947134733,128,23445,174785,10916909
1756894319,0.948134184,128,23395,175015,10916941
1756894319,0.948134184,128,23150,174700,10916973
1756894319,0.948134184,128,23005,175240,10917005
1756894319,0.961705923,128,22860,175490,10917037
1756894319,0.961705923,128,22380,175525,10917069
1756894319,0.961705923,128,22340,175560,10917101
1756894319,0.961705923,128,22435,175535,10917133
1756894319,0.961705923,128,22220,175460,10917165
1756894319,0.961705923,128,22325,175235,10917197
1756894319,0.961705923,128,22570,174935,10917229
1756894319,0.964240313,128,22870,174540,10917261
1756894319,0.964240313,128,23195,174380,10917293
1756894319,0.964240313,128,23345,173990,10917325
1756894319,0.967244387,128,23635,174105,10917357
1756894319,0.973243237,128,23810,174265,10917389
1756894319,0.974243402,128,23870,174085,10917421
1756894319,0.975243807,128,23835,174185,10917453
1756894319,0.975243807,128,24060,174045,10917485
1756894319,0.978749514,128,23995,174250,10917517
1756894319,0.978749514,128,23875,174440,10917549
1756894319,0.978749514,128,23720,174510,10917581
1756894319,0.981750727,128,23590,175275,10917613
1756894319,0.982750654,128,23395,175335,10917645
1756894319,0.982750654,128,23095,175315,10917677
1756894319,0.98375082,128,23110,175520,10917709
1756894319,0.984750986,128,22795,175430,10917741
1756894319,0.984750986,128,22530,175080,10917773
1756894319,0.985750437,128,22525,173815,10917805
1756894319,0.985750437,128,22520,173515,10917837
1756894319,0.986749411,128,22790,174315,10917869
1756894319,0.986749411,128,23230,174770,10917901
1756894319,0.987749815,128,23555,174940,10917933
1756894319,0.987749815,128,23715,174615,10917965
1756894319,0.988749981,128,23835,174555,10917997
1756894319,0.988749981,128,24110,174515,10918029
1756894319,0.991749763,128,24190,175725,10918061
1756894319,0.991749763,128,24190,175620,10918093
1756894319,0.991749763,128,24305,174985,10918125
1756894319,0.993749619,128,24375,173750,10918157
1756894319,0.994749546,128,24060,173665,10918189
1756894319,0.994749546,128,24000,172165,10918221
1756894319,0.994749546,128,23925,172595,10918253
1756894319,0.994749546,128,23740,173565,10918285
1756894319,0.997751951,128,23420,173810,10918317
1756894319,0.998754025,128,23160,174920,10918349
1756894319,0.998754025,128,23075,175490,10918381
1756894319,0.998754025,128,23000,175430,10918413
1756894319,0.998754025,128,22810,175355,10918445
1756894319,0.999750853,128,22875,175105,10918477
1756894319,1.000751734,128,23030,174795,10918509
1756894319,1.000751734,128,23325,174530,10918541
1756894319,1.000751734,128,23680,174340,10918573
1756894319,1.000751734,128,23850,174115,10918605
1756894319,1.000751734,128,24215,173650,10918637
1756894319,1.001750946,128,24505,173635,10918669
1756894319,1.001750946,128,24460,173675,10918701
1756894319,1.001750946,128,24475,173595,10918733
1756894319,1.002613306,128,24340,173525,10918765
1756894319,1.002613306,128,24550,173580,10918797
1756894319,1.002613306,128,24545,173865,10918829
1756894319,1.002613306,128,24535,173855,10918861
1756894319,1.00453949,128,24375,173690,10918893
1756894319,1.00453949,128,24250,173920,10918925
1756894319,1.00453949,128,24090,174725,10918957
1756894319,1.00453949,128,23695,174780,10918989
1756894319,1.012543678,128,23565,174795,10919021
1756894319,1.013544083,128,23275,174970,10919053
1756894319,1.013544083,128,23285,175320,10919085
1756894319,1.014545918,128,23150,176320,10919117
1756894319,1.015545368,128,23270,175020,10919149
1756894319,1.017544508,128,23590,173840,10919181
1756894319,1.019543648,128,23735,174085,10919213
1756894319,1.020543575,128,23990,173985,10919245
1756894319,1.023543596,128,24300,173305,10919277
1756894319,1.023543596,128,24530,173270,10919309
1756894319,1.024543762,128,24520,173120,10919341
1756894319,1.025544882,128,24785,172870,10919373
1756894319,1.025544882,128,24990,172900,10919405
1756894319,1.026543617,128,24920,173400,10919437
1756894319,1.026543617,128,24810,173915,10919469
1756894319,1.026543617,128,24785,174125,10919501
1756894319,1.026543617,128,24840,173895,10919533
1756894319,1.028046131,128,24580,174165,10919565
1756894319,1.028046131,128,24475,174185,10919597
1756894319,1.029050112,128,24185,174450,10919629
1756894319,1.029050112,128,23845,174800,10919661
1756894319,1.032049656,128,23760,174720,10919693
1756894319,1.033050537,128,23515,174925,10919725
1756894319,1.033050537,128,23405,174950,10919757
1756894319,1.033050537,128,23510,174745,10919789
1756894319,1.035049438,128,23750,174430,10919821
1756894319,1.035049438,128,23710,174180,10919853
1756894319,1.036050558,128,24140,173655,10919885
1756894319,1.036050558,128,24260,174150,10919917
1756894319,1.036050558,128,24585,174000,10919949
1756894319,1.039049864,128,24845,173850,10919981
1756894319,1.039049864,128,25155,173720,10920013
1756894319,1.040049553,128,25025,173120,10920045
1756894319,1.040049553,128,25280,173270,10920077
1756894319,1.040049553,128,25290,173445,10920109
1756894319,1.041050196,128,25245,172755,10920141
1756894319,1.041050196,128,25035,172755,10920173
1756894319,1.042049646,128,24855,172720,10920205
1756894319,1.042049646,128,24785,173845,10920237
1756894319,1.042049646,128,24590,174375,10920269
1756894319,1.042049646,128,24335,174655,10920301
1756894319,1.043049574,128,24185,174895,10920333
1756894319,1.043143272,128,24045,174075,10920365
1756894319,1.043143272,128,23680,173420,10920397
1756894319,1.043143272,128,23705,173390,10920429
1756894319,1.043143272,128,23740,173345,10920461
1756894319,1.044668674,128,23905,173195,10920493
1756894319,1.044668674,128,24295,173480,10920525
1756894319,1.044668674,128,24420,173700,10920557
1756894319,1.044668674,128,24835,173655,10920589
1756894319,1.044668674,128,24990,173405,10920621
1756894319,1.044668674,128,25145,173735,10920653
1756894319,1.044668674,128,25440,173795,10920685
1756894319,1.044668674,128,25395,173715,10920717
1756894319,1.044668674,128,25535,173515,10920749
1756894319,1.045673609,128,25415,170375,10920781
1756894319,1.045673609,128,25330,171395,10920813
1756894319,1.045673609,128,25255,172765,10920845
1756894319,1.045673609,128,25215,173195,10920877
1756894319,1.045673609,128,24995,173475,10920909
1756894319,1.045673609,128,24835,173690,10920941
1756894319,1.045673609,128,24535,173565,10920973
1756894319,1.045673609,128,24435,173780,10921005
1756894319,1.045673609,128,24320,173775,10921037
1756894319,1.045673609,128,24080,173855,10921069
1756894319,1.045673609,128,24265,173725,10921101
1756894319,1.045673609,128,24320,173910,10921133
1756894319,1.045673609,128,24455,174055,10921165
1756894319,1.046672821,128,24905,173745,10921197
1756894319,1.046672821,128,25060,173465,10921229
1756894319,1.046672821,128,25140,173420,10921261
1756894319,1.046672821,128,25595,173525,10921293
1756894319,1.046672821,128,25650,173370,10921325
1756894319,1.046672821,128,25770,172215,10921357
1756894319,1.046672821,128,25750,170950,10921389
1756894319,1.046672821,128,25900,170470,10921421
1756894319,1.046672821,128,25830,171680,10921453
1756894319,1.046672821,128,25640,172475,10921485
1756894319,1.046672821,128,25405,173360,10921517
1756894319,1.046672821,128,25520,173610,10921549
1756894319,1.046672821,128,25115,173880,10921581
1756894319,1.046672821,128,24975,174000,10921613
1756894319,1.047674179,128,24810,173815,10921645
1756894319,1.047674179,128,24515,173785,10921677
1756894319,1.061672211,128,24400,173800,10921709
1756894319,1.062672138,128,24460,173585,10921741
1756894319,1.063726664,128,24620,173450,10921773
1756894319,1.064674139,128,24715,173155,10921805
1756894319,1.065672159,128,24885,172875,10921837
1756894319,1.065672159,128,25375,172720,10921869
1756894319,1.068671942,128,25400,172565,10921901
1756894319,1.068671942,128,25695,172230,10921933
1756894319,1.071672201,128,25760,172210,10921965
1756894319,1.07267189,128,26010,172200,10921997
1756894319,1.07267189,128,26085,172125,10922029
1756894319,1.07267189,128,26160,172270,10922061
1756894319,1.074175835,128,26195,172345,10922093
1756894319,1.075179338,128,26105,172560,10922125
1756894319,1.075179338,128,26090,172815,10922157
1756894319,1.075179338,128,25785,172895,10922189
1756894319,1.076179028,128,25885,173050,10922221
1756894319,1.076179028,128,25445,173275,10922253
1756894319,1.077179193,128,25150,173260,10922285
1756894319,1.078179359,128,24870,173620,10922317
1756894319,1.078179359,128,24770,173355,10922349
1756894319,1.081181765,128,24590,173265,10922381
1756894319,1.081181765,128,24420,173240,10922413
1756894319,1.081181765,128,24685,173015,10922445
1756894319,1.084180355,128,24945,172645,10922477
1756894319,1.084180355,128,25235,172600,10922509
1756894319,1.084180355,128,25515,172430,10922541
1756894319,1.085179567,128,25785,172155,10922573
1756894319,1.085179567,128,25985,172245,10922605
1756894319,1.088179827,128,26120,172165,10922637
1756894319,1.088179827,128,26220,172015,10922669
1756894319,1.088179827,128,26490,172300,10922701
1756894319,1.089179277,128,26340,172130,10922733
1756894319,1.089179277,128,26315,172265,10922765
1756894319,1.089179277,128,26220,172560,10922797
1756894319,1.090179205,128,26200,172590,10922829
1756894319,1.090179205,128,26030,172630,10922861
1756894319,1.090179205,128,25250,172660,10922893
1756894319,1.091179132,128,24990,172925,10922925
1756894319,1.091179132,128,24575,173020,10922957
1756894319,1.091179132,128,24470,173140,10922989
1756894319,1.093550682,128,24170,173200,10923021
1756894319,1.093550682,128,24550,173135,10923053
1756894319,1.093550682,128,24920,173140,10923085
1756894319,1.093550682,128,25490,172775,10923117
1756894319,1.093550682,128,25580,172485,10923149
1756894319,1.100554943,128,25645,172280,10923181
1756894319,1.100554943,128,25475,171760,10923213
1756894319,1.100554943,128,25230,171420,10923245
1756894319,1.100554943,128,25450,171885,10923277
1756894319,1.100554943,128,25730,171960,10923309
1756894319,1.100554943,128,25550,171845,10923341
1756894319,1.111983299,128,25575,171840,10923373
1756894319,1.112982035,128,25810,172020,10923405
1756894319,1.112982035,128,25890,172120,10923437
1756894319,1.113984585,128,25940,172300,10923469
1756894319,1.116982698,128,25160,172330,10923501
1756894319,1.116982698,128,24460,172500,10923533
1756894319,1.119982958,128,24390,172710,10923565
1756894319,1.119982958,128,24665,173115,10923597
1756894319,1.120982647,128,24615,173075,10923629
1756894319,1.120982647,128,24640,172985,10923661
1756894319,1.121981621,128,24975,172835,10923693
1756894319,1.122982264,128,24805,172730,10923725
1756894319,1.122982264,128,24915,172370,10923757
1756894319,1.123981714,128,24875,172195,10923789
1756894319,1.123981714,128,25175,171945,10923821
1756894319,1.124983072,128,25700,171645,10923853
1756894319,1.124983072,128,26275,171415,10923885
1756894319,1.128982306,128,26540,171470,10923917
1756894319,1.128982306,128,27070,171330,10923949
1756894319,1.128982306,128,27360,171365,10923981
1756894319,1.130984306,128,27320,171670,10924013
1756894319,1.131983519,128,27365,171520,10924045
1756894319,1.131983519,128,26820,171580,10924077
1756894319,1.131983519,128,26625,171865,10924109
1756894319,1.132983208,128,26360,172060,10924141
1756894319,1.135490179,128,26165,172200,10924173
1756894319,1.135490179,128,26245,172645,10924205
1756894319,1.136490345,128,26065,173030,10924237
1756894319,1.136490345,128,25915,172930,10924269
1756894319,1.136490345,128,25225,172695,10924301
1756894319,1.136490345,128,24575,172895,10924333
1756894319,1.136490345,128,24065,172770,10924365
1756894319,1.137490511,128,23775,172290,10924397
1756894319,1.138490915,128,23740,172080,10924429
1756894319,1.138490915,128,23630,172180,10924461
1756894319,1.138490915,128,24305,172090,10924493
1756894319,1.138490915,128,25445,171990,10924525
1756894319,1.138490915,128,25950,171960,10924557
1756894319,1.139490604,128,26995,172000,10924589
1756894319,1.139792204,128,27690,171675,10924621
1756894319,1.142219543,128,27965,171490,10924653
1756894319,1.142219543,128,28485,171400,10924685
1756894319,1.142219543,128,28950,171590,10924717
1756894319,1.142219543,128,29275,171725,10924749
1756894319,1.143202543,128,28480,172315,10924781
1756894319,1.143202543,128,28265,172410,10924813
1756894319,1.143202543,128,28205,172705,10924845
1756894319,1.157620192,128,28145,172800,10924877
1756894319,1.158620834,128,27495,172740,10924909
1756894319,1.159619331,128,27225,173145,10924941
1756894319,1.160619974,128,26815,173040,10924973
1756894319,1.161619425,128,26435,172795,10925005
1756894319,1.162619114,128,26060,172585,10925037
1756894319,1.164620161,128,26170,172465,10925069
1756894319,1.164620161,128,26325,172195,10925101
1756894319,1.168618917,128,26400,172095,10925133
1756894319,1.168618917,128,26360,171815,10925165
1756894319,1.169620275,128,26505,171510,10925197
1756894319,1.169620275,128,26710,171320,10925229
1756894319,1.200986385,128,26565,171105,10925261
1756894319,1.201986551,128,26395,170995,10925293
1756894319,1.20298624,128,26565,171080,10925325
1756894319,1.20298624,128,26345,171055,10925357
1756894319,1.203985214,128,25985,171255,10925389
1756894319,1.207985163,128,25900,171440,10925421
1756894319,1.207985163,128,25855,171490,10925453
1756894319,1.207985163,128,25955,171855,10925485
1756894319,1.210985661,128,25885,171885,10925517
1756894319,1.210985661,128,25975,172415,10925549
1756894319,1.210985661,128,26050,172635,10925581
1756894319,1.21198535,128,26410,172640,10925613
1756894319,1.212985992,128,26635,172565,10925645
1756894319,1.212985992,128,26605,172620,10925677
1756894319,1.213987827,128,26900,172450,10925709
1756894319,1.213987827,128,26870,172245,10925741
1756894319,1.214986086,128,27360,171935,10925773
1756894319,1.215985775,128,27765,172015,10925805
1756894319,1.215985775,128,27960,171715,10925837
1756894319,1.216986418,128,28075,171565,10925869
1756894319,1.216986418,128,28540,171325,10925901
1756894319,1.219985723,128,28665,171145,10925933
1756894319,1.219985723,128,28340,171180,10925965
1756894319,1.220985889,128,28415,171325,10925997
1756894319,1.221985102,128,28025,171490,10926029
1756894319,1.222985029,128,27615,171615,10926061
1756894319,1.223985195,128,26805,171645,10926093
1756894319,1.223985195,128,25870,171870,10926125
1756894319,1.223985195,128,24845,171675,10926157
1756894319,1.227487803,128,24840,171985,10926189
1756894319,1.227487803,128,24420,172300,10926221
1756894319,1.227487803,128,24295,172455,10926253
1756894319,1.227487803,128,24300,172250,10926285
1756894319,1.228491068,128,24280,172235,10926317
1756894319,1.228491068,128,24355,171665,10926349
1756894319,1.228491068,128,24800,171220,10926381
1756894319,1.229490995,128,25585,171165,10926413
1756894319,1.229490995,128,26210,171225,10926445
1756894319,1.229490995,128,26375,171300,10926477
1756894319,1.230493546,128,26515,170850,10926509
1756894319,1.230493546,128,26995,170645,10926541
1756894319,1.230493546,128,27295,170650,10926573
1756894319,1.230493546,128,27685,171040,10926605
1756894319,1.231544495,128,28030,171295,10926637
1756894319,1.231544495,128,27990,171090,10926669
1756894319,1.233035326,128,27630,171225,10926701
1756894319,1.233035326,128,27380,171780,10926733
1756894319,1.233035326,128,26685,171895,10926765
1756894319,1.233035326,128,26035,172040,10926797
1756894319,1.233035326,128,25450,172700,10926829
1756894319,1.233035326,128,25285,172695,10926861
1756894319,1.233035326,128,25245,172855,10926893
1756894319,1.236038685,128,25095,172480,10926925
1756894319,1.236038685,128,24900,172275,10926957
1756894319,1.236038685,128,25185,171955,10926989
1756894319,1.236038685,128,25165,171610,10927021
1756894319,1.236038685,128,24695,171725,10927053
1756894319,1.236038685,128,24415,171595,10927085
1756894319,1.236038685,128,25330,171205,10927117
1756894319,1.236038685,128,25670,170885,10927149
1756894319,1.236038685,128,26050,170370,10927181
1756894319,1.236038685,128,26330,170290,10927213
1756894319,1.237039328,128,27100,170605,10927245
1756894319,1.237039328,128,27555,170565,10927277
1756894319,1.237039328,128,27450,171230,10927309
1756894319,1.237039328,128,28295,171915,10927341
1756894319,1.237039328,128,28970,172280,10927373
1756894319,1.237039328,128,28900,172240,10927405
1756894319,1.237039328,128,28935,172520,10927437
1756894319,1.237039328,128,28415,172600,10927469
1756894319,1.237039328,128,26705,172585,10927501
1756894319,1.237039328,128,25780,172640,10927533
1756894319,1.237039328,128,25395,172615,10927565
1756894319,1.237039328,128,25240,172470,10927597
1756894319,1.237039328,128,25565,172315,10927629
1756894319,1.237039328,128,25800,172250,10927661
1756894319,1.238039017,128,25980,171790,10927693
1756894319,1.238039017,128,26500,171120,10927725
1756894319,1.238039017,128,27085,170895,10927757
1756894319,1.238039017,128,26360,170690,10927789
1756894319,1.238039017,128,26775,170690,10927821
1756894319,1.250483751,128,27065,171055,10927853
1756894319,1.251482725,128,27905,171085,10927885
1756894319,1.252481937,128,28555,170915,10927917
1756894319,1.252481937,128,28860,170715,10927949
1756894319,1.253482103,128,28270,170655,10927981
1756894319,1.254482031,128,27025,171110,10928013
1756894319,1.25548172,128,26910,171525,10928045
1756894319,1.256481886,128,26955,171665,10928077
1756894319,1.256481886,128,26900,171845,10928109
1756894319,1.259481907,128,26315,172185,10928141
1756894319,1.259481907,128,26110,172370,10928173
1756894319,1.262482405,0,26315,172185,10928205
1756894319,1.262482405,128,26510,172550,10928237
1756894319,1.263481855,128,26710,172490,10928269
1756894319,1.263481855,128,27335,172215,10928301
1756894319,1.264483213,128,27755,171780,10928333
1756894319,1.264483213,128,28020,171415,10928365
1756894319,1.26548171,128,28285,171155,10928397
1756894319,1.26548171,128,28640,171015,10928429
1756894319,1.266482115,128,28935,170880,10928461
1756894319,1.266482115,128,29245,170670,10928493
1756894319,1.267482758,128,27645,170525,10928525
1756894319,1.267482758,128,27150,170570,10928557
1756894319,1.26848197,128,26775,170600,10928589
1756894319,1.26848197,128,26675,170560,10928621
1756894319,1.271481752,128,26500,170715,10928653
1756894319,1.271481752,128,26805,171045,10928685
1756894319,1.27248168,128,26670,171330,10928717
1756894319,1.274988413,128,26285,171495,10928749
1756894319,1.274988413,128,27095,171795,10928781
1756894319,1.274988413,128,26930,171985,10928813
1756894319,1.274988413,128,27155,171990,10928845
1756894319,1.277988434,128,27725,172160,10928877
1756894319,1.278988123,128,28000,172080,10928909
1756894319,1.278988123,128,27455,171615,10928941
1756894319,1.299820185,128,27955,171815,10928973
1756894319,1.301818848,128,27830,171755,10929005
1756894319,1.301818848,128,28175,171465,10929037
1756894319,1.30281949,128,27505,171390,10929069
1756894319,1.303819418,128,25905,171335,10929101
1756894319,1.323197603,128,24750,170735,10929133
1756894319,1.323197603,128,25010,170435,10929165
1756894319,1.323197603,128,24970,170140,10929197
1756894319,1.324858904,128,24180,169965,10929229
1756894319,1.324858904,128,23745,170105,10929261
1756894319,1.324858904,128,23070,169920,10929293
1756894319,1.352376699,128,23390,169720,10929325
1756894319,1.353376389,128,23280,169735,10929357
1756894319,1.353376389,128,24180,169785,10929389
1756894319,1.354375839,128,25160,170165,10929421
1756894319,1.35537672,128,26270,170535,10929453
1756894319,1.35537672,128,26115,170810,10929485
1756894319,1.364377022,128,25365,171230,10929517
1756894319,1.364377022,128,26310,171460,10929549
1756894319,1.365375757,128,27335,171185,10929581
1756894319,1.365375757,128,27970,171310,10929613
1756894319,1.365375757,128,29235,170970,10929645
1756894319,1.366375685,128,30450,170665,10929677
1756894319,1.366375685,128,30775,170480,10929709
1756894319,1.366375685,128,31760,170020,10929741
1756894319,1.367375851,128,33350,169780,10929773
1756894319,1.367375851,128,33450,169610,10929805
1756894319,1.367375851,128,33400,169250,10929837
1756894319,1.367375851,128,33160,169570,10929869
1756894319,1.368524313,128,33135,169550,10929901
1756894319,1.368524313,128,32870,169850,10929933
1756894319,1.368524313,128,32565,169930,10929965
1756894319,1.368524313,128,31165,170470,10929997
1756894319,1.368524313,128,29595,170360,10930029
1756894319,1.370065928,128,28485,170130,10930061
1756894319,1.370065928,128,27330,169905,10930093
1756894319,1.370065928,128,27000,169935,10930125
1756894319,1.370065928,128,27100,170130,10930157
1756894319,1.370065928,128,26360,169965,10930189
1756894319,1.370065928,128,25815,169825,10930221
1756894319,1.371071339,128,26390,169500,10930253
1756894319,1.371071339,128,26895,169285,10930285
1756894319,1.371071339,128,27955,168795,10930317
1756894319,1.371071339,128,28575,168830,10930349
1756894319,1.371071339,128,29320,168775,10930381
1756894319,1.372070313,128,29825,168895,10930413
1756894319,1.376076937,128,30080,168535,10930445
1756894319,1.376076937,128,29390,168750,10930477
1756894319,1.376076937,128,29255,168980,10930509
1756894319,1.376076937,128,29355,169245,10930541
1756894319,1.377070427,128,29640,169520,10930573
1756894319,1.377070427,128,30000,169130,10930605
1756894319,1.379031181,128,30820,169445,10930637
1756894319,1.379031181,128,31160,169910,10930669
1756894319,1.379031181,128,30975,170020,10930701
1756894319,1.380031824,128,30545,170200,10930733
1756894319,1.387031078,128,30180,170290,10930765
1756894319,1.388030052,128,29000,170130,10930797
1756894319,1.38902998,128,26965,170430,10930829
1756894319,1.390031099,128,25140,170570,10930861
1756894319,1.39103055,128,24920,170495,10930893
1756894319,1.39103055,128,26080,170375,10930925
1756894319,1.392031431,128,26450,169845,10930957
1756894319,1.395030499,128,28165,169355,10930989
1756894319,1.395030499,128,30115,169220,10931021
1756894319,1.395030499,128,30755,169195,10931053
1756894319,1.398032188,128,32635,169045,10931085
1756894319,1.399030447,128,33650,169055,10931117
1756894319,1.399030447,128,34095,168920,10931149
1756894319,1.400031805,128,33780,168775,10931181
1756894319,1.401031256,128,32350,168775,10931213
1756894319,1.401031256,128,30025,168885,10931245
1756894319,1.402031422,128,28760,168835,10931277
1756894319,1.402031422,128,27660,169190,10931309
1756894319,1.403030872,128,27580,169265,10931341
1756894319,1.404030561,128,27295,169420,10931373
1756894319,1.404030561,128,27535,169620,10931405
1756894319,1.405030727,128,27490,169510,10931437
1756894319,1.405030727,128,27615,169280,10931469
1756894319,1.408030033,128,28450,169450,10931501
1756894319,1.408030033,128,29860,169550,10931533
1756894319,1.408030033,128,30540,169275,10931565
1756894319,1.411030293,128,30865,169195,10931597
1756894319,1.411030293,128,31165,168985,10931629
1756894319,1.411030293,128,30875,168855,10931661
1756894319,1.41203022,128,30520,168500,10931693
1756894319,1.41203022,128,30265,168135,10931725
1756894319,1.415030241,128,30830,168095,10931757
1756894319,1.415030241,128,31480,168415,10931789
1756894319,1.415030241,128,31295,168195,10931821
1756894319,1.415030241,128,31025,168080,10931853
1756894319,1.416031361,128,31945,168130,10931885
1756894319,1.416031361,128,32600,168335,10931917
1756894319,1.417031765,128,33070,168550,10931949
1756894319,1.417031765,128,33170,168730,10931981
1756894319,1.417031765,128,33345,168750,10932013
1756894319,1.418030739,128,32755,168915,10932045
1756894319,1.418030739,128,32300,169135,10932077
1756894319,1.418030739,128,31595,169255,10932109
1756894319,1.418780327,128,31200,169430,10932141
1756894319,1.418780327,128,30500,169640,10932173
1756894319,1.418780327,128,30590,169500,10932205
1756894319,1.418780327,128,30115,169220,10932237
1756894319,1.420491934,128,30040,169280,10932269
1756894319,1.420491934,128,30020,168900,10932301
1756894319,1.420491934,128,28640,168665,10932333
1756894319,1.420491934,128,27505,168420,10932365
1756894319,1.420491934,128,26665,167975,10932397
1756894319,1.420491934,128,25515,167920,10932429
1756894319,1.420491934,128,25125,167625,10932461
1756894319,1.420491934,128,24660,167730,10932493
1756894319,1.420491934,128,25125,167455,10932525
1756894319,1.421496391,128,26565,167470,10932557
1756894319,1.421496391,128,28045,167500,10932589
1756894319,1.421496391,128,29675,167785,10932621
1756894319,1.421496391,128,30415,167755,10932653
1756894319,1.421496391,128,31615,167795,10932685
1756894319,1.421496391,128,32375,168070,10932717
1756894319,1.421496391,128,31945,168410,10932749
1756894319,1.421496391,128,31870,168815,10932781
1756894319,1.421496391,128,31600,169055,10932813
1756894319,1.421496391,128,30060,169090,10932845
1756894319,1.421496391,128,30235,168915,10932877
1756894319,1.421496391,128,30795,168840,10932909
1756894319,1.421496391,128,31685,168675,10932941
1756894319,1.422495365,128,31880,168370,10932973
1756894319,1.422495365,128,32070,168010,10933005
1756894319,1.422495365,128,33225,167935,10933037
1756894319,1.422495365,128,33620,167875,10933069
1756894319,1.422495365,128,33055,167695,10933101
1756894319,1.422495365,128,33160,167640,10933133
1756894319,1.422495365,128,33005,167605,10933165
1756894319,1.422495365,128,32650,167590,10933197
1756894319,1.422495365,128,31250,167540,10933229
1756894319,1.422495365,128,30860,167505,10933261
1756894319,1.422495365,128,30600,167575,10933293
1756894319,1.422495365,128,29840,167540,10933325
1756894319,1.422495365,128,28360,167320,10933357
1756894319,1.422495365,128,27625,167575,10933389
1756894319,1.42349577,128,27570,167700,10933421
1756894319,1.42349577,128,28405,167920,10933453
1756894319,1.42349577,128,29490,167775,10933485
1756894319,1.42349577,128,29400,167975,10933517
1756894319,1.42349577,128,28915,168340,10933549
1756894319,1.42349577,128,29475,168515,10933581
1756894319,1.42349577,128,30720,168335,10933613
1756894319,1.42349577,128,31155,167970,10933645
1756894319,1.42349577,128,32080,167630,10933677
1756894319,1.42349577,128,33200,167490,10933709
1756894319,1.42349577,128,33600,167310,10933741
1756894319,1.430320501,128,33950,167205,10933773
1756894319,1.430320501,128,33830,167300,10933805
1756894319,1.430320501,128,34530,167100,10933837
1756894319,1.437320948,128,34215,167275,10933869
1756894319,1.43832016,128,34215,167390,10933901
1756894319,1.439320803,128,32960,167375,10933933
1756894319,1.440321445,128,32430,167725,10933965
1756894319,1.441321135,128,31720,167845,10933997
1756894319,1.442321062,128,32080,167895,10934029
1756894319,1.443321228,128,32080,168045,10934061
1756894319,1.443321228,128,31130,168230,10934093
1756894319,1.444321156,128,30620,168205,10934125
1756894319,1.447320461,128,30360,168360,10934157
1756894319,1.447320461,128,28180,168125,10934189
1756894319,1.450321198,128,26720,167865,10934221
1756894319,1.451321125,128,26910,167365,10934253
1756894319,1.452323198,128,26325,167030,10934285
1756894319,1.452323198,128,26670,166725,10934317
1756894319,1.453321218,128,27880,166495,10934349
1756894319,1.453321218,128,29590,166225,10934381
1756894319,1.454321146,128,31125,166295,10934413
1756894319,1.454321146,128,32200,166215,10934445
1756894319,1.455320835,128,33005,166145,10934477
1756894319,1.455320835,128,32145,166555,10934509
1756894319,1.456321001,128,31735,166650,10934541
1756894319,1.459321022,128,31995,166865,10934573
1756894319,1.460322142,128,31490,166985,10934605
1756894319,1.460322142,128,30385,167105,10934637
1756894319,1.463321447,128,30900,167295,10934669
1756894319,1.463321447,128,31695,167435,10934701
1756894319,1.463321447,128,32625,167560,10934733
1756894319,1.464321136,128,32835,167740,10934765
1756894319,1.464321136,128,33450,167870,10934797
1756894319,1.467321396,128,34290,167500,10934829
1756894319,1.467321396,128,34125,167460,10934861
1756894319,1.467321396,128,31675,167225,10934893
1756894319,1.468321085,128,30770,166780,10934925
1756894319,1.468321085,128,31555,166620,10934957
1756894319,1.468321085,128,31230,166265,10934989
1756894319,1.469321012,128,31595,166050,10935021
1756894319,1.469321012,128,32320,165975,10935053
1756894319,1.469321012,128,33460,165870,10935085
1756894319,1.470320702,128,34175,165980,10935117
1756894319,1.470320702,128,34055,165870,10935149
1756894319,1.470320702,128,33995,166100,10935181
1756894319,1.470320702,128,33630,166270,10935213
1756894319,1.471321106,128,34035,166390,10935245
1756894319,1.472320795,128,33780,166585,10935277
1756894319,1.480829716,128,33825,166685,10935309
1756894319,1.481828928,128,33835,166915,10935341
1756894319,1.482829809,128,33985,167285,10935373
1756894319,1.48382926,128,32950,167440,10935405
1756894319,1.484829426,128,31835,167475,10935437
1756894319,1.484829426,128,31570,167425,10935469
1756894319,1.485830307,128,31835,167425,10935501
1756894319,1.486828327,128,32145,167260,10935533
1756894319,1.489828348,128,32190,167095,10935565
1756894319,1.489828348,128,31715,166815,10935597
1756894319,1.492828131,128,31045,166575,10935629
1756894319,1.493828535,128,30435,166195,10935661
1756894319,1.493828535,128,30290,166300,10935693
1756894319,1.494828463,128,29705,166175,10935725
1756894319,1.494828463,128,29615,166120,10935757
1756894319,1.49582839,128,29760,166180,10935789
1756894319,1.49582839,128,29965,166230,10935821
1756894319,1.496828318,128,30545,166140,10935853
1756894319,1.497829914,128,31385,166205,10935885
1756894319,1.497829914,128,32345,166320,10935917
1756894319,1.498829365,128,33620,166585,10935949
1756894319,1.498829365,128,34155,166670,10935981
1756894319,1.499828577,128,33180,166665,10936013
1756894319,1.50282836,128,32790,166775,10936045
1756894319,1.50282836,128,32675,167190,10936077
1756894319,1.50282836,128,33150,167235,10936109
1756894319,1.504828691,128,33715,167260,10936141
1756894319,1.505828857,128,34045,167115,10936173
1756894319,1.505828857,128,34160,167005,10936205
1756894319,1.506828308,128,33990,166745,10936237
1756894319,1.506828308,128,34055,166535,10936269
1756894319,1.506828308,128,34395,166395,10936301
1756894319,1.509828091,128,34110,166025,10936333
1756894319,1.509828091,128,34265,165965,10936365
1756894319,1.510829687,128,34340,165895,10936397
1756894319,1.510829687,128,34170,166000,10936429
1756894319,1.510829687,128,34170,166000,10936461
1756894319,1.510829687,128,33990,166120,10936493
1756894319,1.511829615,128,33645,166205,10936525
1756894319,1.511829615,128,33615,166325,10936557
1756894319,1.512829542,128,33270,166480,10936589
1756894319,1.512829542,128,32315,166430,10936621
1756894319,1.512829542,128,31565,166485,10936653
1756894319,1.512829542,128,31265,166590,10936685
1756894319,1.513829708,128,30170,166725,10936717
1756894319,1.513829708,128,28535,166680,10936749
1756894319,1.516876698,128,27835,166690,10936781
1756894319,1.516876698,128,27720,166445,10936813
1756894319,1.516876698,128,27845,166050,10936845
1756894319,1.516876698,128,28145,165925,10936877
1756894319,1.516876698,128,29175,165905,10936909
1756894319,1.516876698,128,29805,165660,10936941
1756894319,1.516876698,128,30170,165805,10936973
1756894319,1.516876698,128,31135,165765,10937005
1756894319,1.516876698,128,32680,165635,10937037
1756894319,1.516876698,128,33200,165860,10937069
1756894319,1.516876698,128,34650,165820,10937101
1756894319,1.51787591,128,35395,165745,10937133
1756894319,1.523874998,128,35690,166050,10937165
1756894319,1.523874998,128,35925,166175,10937197
1756894319,1.523874998,128,35350,166265,10937229
1756894319,1.524378538,128,34830,166385,10937261
1756894319,1.524480581,128,34160,166620,10937293
1756894319,1.524480581,128,33795,166805,10937325
1756894319,1.532795668,128,33035,166780,10937357
1756894319,1.533794403,128,32465,167070,10937389
1756894319,1.534795284,128,33285,167245,10937421
1756894319,1.53579545,128,33030,167070,10937453
1756894319,1.536795378,128,32690,167050,10937485
1756894319,1.537795305,128,33485,166970,10937517
1756894319,1.53879571,128,33730,166930,10937549
1756894319,1.541795492,128,34180,166735,10937581
1756894319,1.541795492,128,34065,166475,10937613
1756894319,1.543795347,128,34380,166230,10937645
1756894319,1.544795275,128,34790,166040,10937677
1756894319,1.545795202,128,34455,165990,10937709
1756894319,1.545795202,128,34445,165825,10937741
1756894319,1.546795368,128,34670,165860,10937773
1756894319,1.547795057,128,34445,165885,10937805
1756894319,1.547795057,128,34655,165855,10937837
1756894319,1.548795462,128,34570,166120,10937869
1756894319,1.548795462,128,34745,166355,10937901
1756894319,1.549795389,128,34675,166560,10937933
1756894319,1.549795389,128,35010,166920,10937965
1756894319,1.550795555,128,34595,167110,10937997
1756894319,1.551795244,128,34010,167305,10938029
1756894319,1.559794664,128,33205,167270,10938061
1756894319,1.560794353,128,30995,167010,10938093
1756894319,1.560794353,128,30055,166875,10938125
1756894319,1.560794353,128,29825,166720,10938157
1756894319,1.560794353,128,30020,166215,10938189
1756894319,1.561795235,128,29900,166260,10938221
1756894319,1.561795235,128,29475,165610,10938253
1756894319,1.562794924,128,31245,165795,10938285
1756894319,1.562794924,128,32485,165835,10938317
1756894319,1.562794924,128,32440,165945,10938349
1756894319,1.562794924,128,32145,165845,10938381
1756894319,1.56379652,128,31825,166325,10938413
1756894319,1.574447393,128,30355,166660,10938445
1756894319,1.575447321,128,29200,166610,10938477
1756894319,1.575447321,128,29165,166520,10938509
1756894319,1.576447725,128,29820,166595,10938541
1756894319,1.577448606,128,31825,166665,10938573
1756894319,1.578447342,128,33665,166575,10938605
1756894319,1.579447746,128,35400,166785,10938637
1756894319,1.580448389,128,37430,166850,10938669
1756894319,1.58344841,128,37005,166870,10938701
1756894319,1.58344841,128,37045,167135,10938733
1756894319,1.585448265,128,36050,167085,10938765
1756894319,1.586448193,128,33705,167165,10938797
1756894319,1.58744812,128,32580,167045,10938829
1756894319,1.58744812,128,32000,166975,10938861
1756894319,1.588448286,128,32950,166630,10938893
1756894319,1.589447975,128,34710,166525,10938925
1756894319,1.589447975,128,35715,166225,10938957
1756894319,1.590448141,128,36285,166195,10938989
1756894319,1.590448141,128,37525,166110,10939021
1756894319,1.591448307,128,38345,165960,10939053
1756894319,1.591448307,128,37920,165855,10939085
1756894319,1.592448235,128,37695,166110,10939117
1756894319,1.592448235,128,37220,166050,10939149
1756894319,1.595448494,128,36435,166205,10939181
1756894319,1.595448494,128,36115,166465,10939213
1756894319,1.595448494,128,35660,166455,10939245
1756894319,1.599448204,128,34040,166645,10939277
1756894319,1.599448204,128,33190,166750,10939309
1756894319,1.599448204,128,32760,167155,10939341
1756894319,1.599448204,128,33030,167170,10939373
1756894319,1.599448204,128,33040,167275,10939405
1756894319,1.603448153,128,33400,167355,10939437
1756894319,1.603448153,128,34135,167200,10939469
1756894319,1.603448153,128,34230,166620,10939501
1756894319,1.603448153,128,34610,166075,10939533
1756894319,1.603448153,128,34830,165635,10939565
1756894319,1.604448318,128,34950,165645,10939597
1756894319,1.605448484,128,35290,165910,10939629
1756894319,1.605448484,128,35070,166000,10939661
1756894319,1.605448484,128,35255,165975,10939693
1756894319,1.605448484,128,35335,165800,10939725
1756894319,1.606716871,128,35415,165720,10939757
1756894319,1.606716871,128,35325,165755,10939789
1756894319,1.606716871,128,35280,165940,10939821
1756894319,1.606716871,128,35010,165805,10939853
1756894319,1.606716871,128,34680,166120,10939885
1756894319,1.61238265,128,34400,166170,10939917
1756894319,1.61238265,128,34035,166590,10939949
1756894319,1.61238265,128,34125,166645,10939981
1756894319,1.61238265,128,34020,166905,10940013
1756894319,1.61238265,128,33890,166730,10940045
1756894319,1.61238265,128,33630,166580,10940077
1756894319,1.61238265,128,34290,166845,10940109
1756894319,1.616383553,128,34180,166585,10940141
1756894319,1.616383553,128,33875,166340,10940173
1756894319,1.616383553,128,34230,166175,10940205
1756894319,1.616383553,128,34515,166070,10940237
1756894319,1.616383553,128,34510,165730,10940269
1756894319,1.625778675,128,34740,165650,10940301
1756894319,1.625778675,128,33850,165660,10940333
1756894319,1.626778126,128,33410,165590,10940365
1756894319,1.627777576,128,32055,165600,10940397
1756894319,1.627777576,128,31290,165600,10940429
1756894319,1.628777742,128,31810,165685,10940461
1756894319,1.629778147,128,32400,165715,10940493
1756894319,1.630779982,128,33620,165885,10940525
1756894319,1.631779194,128,34780,165975,10940557
1756894319,1.631779194,128,35415,166440,10940589
1756894319,1.633282661,128,36110,166580,10940621
1756894319,1.636285782,128,36625,166545,10940653
1756894319,1.639286757,128,35590,166845,10940685
1756894319,1.64028573,128,35525,166595,10940717
1756894319,1.64028573,128,35190,166715,10940749
1756894319,1.64128685,128,34095,166685,10940781
1756894319,1.642286301,128,33665,166385,10940813
1756894319,1.642286301,128,34035,166180,10940845
1756894319,1.643286705,128,34330,166200,10940877
1756894319,1.643286705,128,34285,166060,10940909
1756894319,1.643286705,128,35380,165885,10940941
1756894319,1.644286633,128,35700,165690,10940973
1756894319,1.644286633,128,34370,165660,10941005
1756894319,1.645287037,128,33340,165795,10941037
1756894319,1.673495531,128,33315,165750,10941069
1756894319,1.675494671,128,31585,165880,10941101
1756894319,1.676496029,128,31850,165725,10941133
1756894319,1.67749548,128,32300,165845,10941165
1756894319,1.678495407,128,33235,165990,10941197
1756894319,1.678495407,128,33825,166160,10941229
1756894319,1.700004339,128,34840,166400,10941261
1756894319,1.700004339,128,34510,166565,10941293
1756894319,1.701005459,128,34825,166760,10941325
1756894319,1.701005459,128,35025,166990,10941357
1756894319,1.701005459,128,35590,167025,10941389
1756894319,1.702003956,128,35825,166895,10941421
1756894319,1.704005003,128,34920,166345,10941453
1756894319,1.704005003,128,34870,166500,10941485
1756894319,1.704005003,128,35095,166355,10941517
1756894319,1.704005003,128,35380,166100,10941549
1756894319,1.704005003,128,35500,165835,10941581
1756894319,1.706003189,128,35370,165780,10941613
1756894319,1.706003189,128,35645,165640,10941645
1756894319,1.706003189,128,35460,165640,10941677
1756894319,1.706003189,128,35625,165580,10941709
1756894319,1.706003189,128,35635,165670,10941741
1756894319,1.706003189,128,35640,165785,10941773
1756894319,1.709003448,128,35280,165815,10941805
1756894319,1.709003448,128,33485,166080,10941837
1756894319,1.709003448,128,32575,166230,10941869
1756894319,1.709003448,128,32145,166305,10941901
1756894319,1.709003448,128,32315,166415,10941933
1756894319,1.711005449,128,32605,166525,10941965
1756894319,1.711005449,128,32110,166665,10941997
1756894319,1.711005449,128,32485,166705,10942029
1756894319,1.711005449,128,32405,166500,10942061
1756894319,1.711005449,128,32600,166620,10942093
1756894319,1.711005449,128,32455,166340,10942125
1756894319,1.712004662,128,32230,166200,10942157
1756894319,1.714004755,128,33735,166070,10942189
1756894319,1.714004755,128,33945,165610,10942221
1756894319,1.714004755,128,34845,165335,10942253
1756894319,1.714004755,128,36045,165445,10942285
1756894319,1.714004755,128,36360,165635,10942317
1756894319,1.716469526,128,36905,165680,10942349
1756894319,1.724467993,128,37230,165860,10942381
1756894319,1.724467993,128,37255,165870,10942413
1756894319,1.725468159,128,36130,165810,10942445
1756894319,1.726468086,128,35455,165905,10942477
1756894319,1.727469921,128,34965,166215,10942509
1756894319,1.727469921,128,34965,166165,10942541
1756894319,1.728972673,128,34300,166435,10942573
1756894319,1.729976177,128,33915,166510,10942605
1756894319,1.729976177,128,32400,166480,10942637
1756894319,1.733976841,128,30925,166530,10942669
1756894319,1.733976841,128,30870,166470,10942701
1756894319,1.733976841,128,31210,166325,10942733
1756894319,1.736976624,128,31640,166345,10942765
1756894319,1.737976551,128,32285,166110,10942797
1756894319,1.737976551,128,33200,165890,10942829
1756894319,1.738976955,128,33785,165860,10942861
1756894319,1.738976955,128,34570,165455,10942893
1756894319,1.739976883,128,34540,165395,10942925
1756894319,1.739976883,128,35270,165395,10942957
1756894319,1.740977526,128,35760,165130,10942989
1756894319,1.740977526,128,36060,165070,10943021
1756894319,1.741976976,128,35975,165140,10943053
1756894319,1.741976976,128,36125,165295,10943085
1756894319,1.742976904,128,36350,165600,10943117
1756894319,1.743976831,128,36430,165675,10943149
1756894319,1.745976686,128,35985,165790,10943181
1756894319,1.746977568,128,35035,166000,10943213
1756894319,1.746977568,128,34000,165990,10943245
1756894319,1.748976946,128,33305,166105,10943277
1756894319,1.749976873,128,33155,166000,10943309
1756894319,1.750976801,128,32965,166000,10943341
1756894319,1.750976801,128,32840,165855,10943373
1756894319,1.750976801,128,32910,165710,10943405
1756894319,1.753976583,128,33110,165595,10943437
1756894319,1.753976583,128,33465,165570,10943469
1756894319,1.754975796,128,33550,165515,10943501
1756894319,1.754975796,128,33975,165530,10943533
1756894319,1.754975796,128,34125,165250,10943565
1756894319,1.754975796,128,33685,165315,10943597
1756894319,1.755976677,128,33780,165385,10943629
1756894319,1.755976677,128,34065,165255,10943661
1756894319,1.756976604,128,34325,165395,10943693
1756894319,1.756976604,128,34445,165580,10943725
1756894319,1.756976604,128,34225,165695,10943757
1756894319,1.756976604,128,34185,165840,10943789
1756894319,1.757977486,128,34250,166205,10943821
1756894319,1.758442163,128,34040,166295,10943853
1756894319,1.758442163,128,33725,166310,10943885
1756894319,1.758442163,128,33680,166365,10943917
1756894319,1.758442163,128,33570,166305,10943949
1756894319,1.758442163,128,33150,166265,10943981
1756894319,1.759997845,128,33530,166000,10944013
1756894319,1.759997845,128,33450,166010,10944045
1756894319,1.759997845,128,33490,165775,10944077
1756894319,1.759997845,128,34175,165490,10944109
1756894319,1.768001795,128,34340,165230,10944141
1756894319,1.769001722,128,34680,165115,10944173
1756894319,1.77000165,128,35270,165050,10944205
1756894319,1.771002769,128,35560,164980,10944237
1756894319,1.772002935,128,35820,164960,10944269
1756894319,1.772002935,128,35920,165075,10944301
1756894319,1.773001909,128,36050,165025,10944333
1756894319,1.774002075,128,36205,164940,10944365
1756894319,1.775002956,128,35995,165075,10944397
1756894319,1.776002645,128,35865,165300,10944429
1756894319,1.779001951,128,35865,165350,10944461
1756894319,1.779001951,128,35850,165510,10944493
1756894319,1.782002211,128,35615,165715,10944525
1756894319,1.782002211,128,35500,165620,10944557
1756894319,1.78300333,128,35080,165860,10944589
1756894319,1.78300333,128,34375,165970,10944621
1756894319,1.784506798,128,34045,166000,10944653
1756894319,1.785511494,128,34105,165765,10944685
1756894319,1.785511494,128,34135,165665,10944717
1756894319,1.786511421,128,34140,165370,10944749
1756894319,1.786511421,128,34665,165055,10944781
1756894319,1.787511587,128,35285,164965,10944813
1756894319,1.787511587,128,34885,164890,10944845
1756894319,1.788511276,128,34700,164675,10944877
1756894319,1.791511536,128,34880,164635,10944909
1756894319,1.791511536,128,35030,164635,10944941
1756894319,1.791511536,128,35210,164670,10944973
1756894319,1.794511557,128,35430,164930,10945005
1756894319,1.795511723,128,35140,164880,10945037
1756894319,1.795511723,128,35275,165115,10945069
1756894319,1.795511723,128,34915,165055,10945101
1756894319,1.795511723,128,34900,165315,10945133
1756894319,1.798511505,128,35495,165415,10945165
1756894319,1.799511671,128,35635,165720,10945197
1756894319,1.799511671,128,35940,165840,10945229
1756894319,1.799511671,128,36380,165515,10945261
1756894319,1.799511671,128,36275,165445,10945293
1756894319,1.799511671,128,35060,165460,10945325
1756894319,1.80051136,128,34550,165515,10945357
1756894319,1.801511526,128,34450,165330,10945389
1756894319,1.801511526,128,34770,165320,10945421
1756894319,1.801511526,128,35025,165210,10945453
1756894319,1.801511526,128,35215,165295,10945485
1756894319,1.802511454,128,35610,164820,10945517
1756894319,1.802511454,128,35915,164935,10945549
1756894319,1.802973032,128,36015,164780,10945581
1756894319,1.802973032,128,36335,164645,10945613
1756894319,1.802973032,128,36055,164730,10945645
1756894319,1.802973032,128,36180,164745,10945677
1756894319,1.804560184,128,36280,164890,10945709
1756894319,1.804560184,128,36115,165080,10945741
1756894319,1.804560184,128,35955,165100,10945773
1756894319,1.804560184,128,35915,165285,10945805
1756894319,1.805565119,128,35310,165480,10945837
1756894319,1.811564922,128,34910,165390,10945869
1756894319,1.81256485,128,34335,165525,10945901
1756894319,1.81256485,128,34305,165420,10945933
1756894319,1.813564777,128,34060,165595,10945965
1756894319,1.813564777,128,33510,165395,10945997
1756894319,1.813564777,128,32555,165220,10946029
1756894319,1.814564943,128,32395,164955,10946061
1756894319,1.814564943,128,31950,164765,10946093
1756894319,1.815564871,128,32050,164700,10946125
1756894319,1.816564798,128,33140,164560,10946157
1756894319,1.816564798,128,34680,164390,10946189
1756894319,1.817564964,128,35610,164360,10946221
1756894319,1.818564653,128,37170,164380,10946253
1756894319,1.819565535,128,38025,164410,10946285
1756894319,1.819565535,128,38630,164260,10946317
1756894319,1.820564508,128,38815,164285,10946349
1756894319,1.820564508,128,38145,164650,10946381
1756894319,1.821564674,128,37470,165040,10946413
1756894319,1.82456398,128,36620,165135,10946445
1756894319,1.825563908,128,35800,165175,10946477
1756894319,1.827563763,128,35395,165330,10946509
1756894319,1.827563763,128,35155,165540,10946541
1756894319,1.829066515,128,34945,165515,10946573
1756894319,1.829066515,128,34615,165480,10946605
1756894319,1.83006978,128,34450,165340,10946637
1756894319,1.839070082,128,34570,165330,10946669
1756894319,1.839070082,128,34920,165230,10946701
1756894319,1.839070082,128,35090,164965,10946733
1756894319,1.839070082,128,35490,164765,10946765
1756894319,1.842069387,128,35755,164680,10946797
1756894319,1.843070745,128,36095,164450,10946829
1756894319,1.843070745,128,36445,164410,10946861
1756894319,1.843070745,128,36630,164325,10946893
1756894319,1.843070745,128,36810,164320,10946925
1756894319,1.843070745,128,36970,164310,10946957
1756894319,1.844069958,128,36955,164440,10946989
1756894319,1.845069647,128,36795,164655,10947021
1756894319,1.845069647,128,36025,164705,10947053
1756894319,1.845069647,128,34775,164725,10947085
1756894319,1.845069647,128,34150,164940,10947117
1756894319,1.845069647,128,33785,165100,10947149
1756894319,1.856373072,128,33765,165080,10947181
1756894319,1.856373072,128,33425,164965,10947213
1756894319,1.857373476,128,32615,165080,10947245
1756894319,1.85837388,128,32205,165010,10947277
1756894319,1.859373569,128,32855,164985,10947309
1756894319,1.859373569,128,33405,164950,10947341
1756894319,1.860373259,128,34370,164725,10947373
1756894319,1.861372948,128,34500,164660,10947405
1756894319,1.861372948,128,35705,164530,10947437
1756894319,1.862373114,128,36400,164510,10947469
1756894319,1.862373114,128,37525,164465,10947501
1756894319,1.86537385,128,37680,164390,10947533
1756894319,1.866373777,128,37970,164360,10947565
1756894319,1.86937356,128,37905,164470,10947597
1756894319,1.86937356,128,36995,164245,10947629
1756894319,1.870373249,128,36415,164325,10947661
1756894319,1.870373249,128,36320,164680,10947693
1756894319,1.871373177,128,35140,164570,10947725
1756894319,1.875878334,128,34695,164860,10947757
1756894319,1.876878262,128,34310,164810,10947789
1756894319,1.876878262,128,34320,164905,10947821
1756894319,1.879878521,128,34820,164925,10947853
1756894319,1.879878521,128,34515,165260,10947885
1756894319,1.880880356,128,34635,165200,10947917
1756894319,1.880880356,128,35825,165310,10947949
1756894319,1.880880356,128,37145,165135,10947981
1756894319,1.883878946,128,38040,164915,10948013
1756894319,1.883878946,128,38855,164830,10948045
1756894319,1.884878397,128,39185,164705,10948077
1756894319,1.884878397,128,39380,164815,10948109
1756894319,1.884878397,128,38640,164535,10948141
1756894319,1.884878397,128,38270,164480,10948173
1756894319,1.885879278,128,38360,164445,10948205
1756894319,1.885879278,128,38415,164310,10948237
1756894319,1.886878967,128,38320,164300,10948269
1756894319,1.886878967,128,38235,164475,10948301
1756894319,1.886878967,128,38155,164505,10948333
1756894319,1.886878967,128,37830,164630,10948365
1756894319,1.888037443,128,37505,164620,10948397
1756894319,1.888037443,128,37225,164755,10948429
1756894319,1.888037443,128,37085,164910,10948461
1756894319,1.888037443,128,36630,165170,10948493
1756894320,1.889565468,128,36240,165120,10948525
1756894320,1.889565468,128,35875,165135,10948557
1756894320,1.889565468,128,35815,165305,10948589
1756894320,1.889565468,128,35625,164955,10948621
1756894320,1.889565468,128,35960,165110,10948653
1756894320,1.889565468,128,36225,164885,10948685
1756894320,1.889565468,128,36395,164785,10948717
1756894320,1.889565468,128,36685,164420,10948749
1756894320,1.889565468,128,37015,164310,10948781
1756894320,1.890570164,128,37290,164205,10948813
1756894320,1.890570164,128,37720,164185,10948845
1756894320,1.896578789,128,37880,164100,10948877
1756894320,1.896578789,128,38040,164095,10948909
1756894320,1.896578789,128,38115,164370,10948941
1756894320,1.896578789,128,38030,164325,10948973
1756894320,1.896578789,128,37665,164540,10949005
1756894320,1.897573471,128,37445,164645,10949037
1756894320,1.897573471,128,37150,164720,10949069
1756894320,1.897573471,128,37065,164845,10949101
1756894320,1.897573471,128,36450,164870,10949133
1756894320,1.897573471,128,35915,164965,10949165
1756894320,1.897573471,128,35560,165240,10949197
1756894320,1.900203705,128,35520,165105,10949229
1756894320,1.910201073,128,35260,165140,10949261
1756894320,1.910201073,128,35510,165040,10949293
1756894320,1.911202669,128,35760,164885,10949325
1756894320,1.912201881,128,36215,164575,10949357
1756894320,1.913201332,128,36615,164595,10949389
1756894320,1.914203405,128,37225,164315,10949421
1756894320,1.915202141,128,37765,164200,10949453
1756894320,1.915202141,128,37895,164070,10949485
1756894320,1.916202068,128,38140,164030,10949517
1756894320,1.917202234,128,37920,164020,10949549
1756894320,1.920201063,128,37870,163990,10949581
1756894320,1.920201063,128,37875,163975,10949613
1756894320,1.920201063,128,37765,164305,10949645
1756894320,1.923200846,128,37435,164320,10949677
1756894320,1.923200846,128,37255,164455,10949709
1756894320,1.924201488,128,37245,164540,10949741
1756894320,1.925200701,128,36945,164750,10949773
1756894320,1.925200701,128,36860,164765,10949805
1756894320,1.926200867,128,36450,164825,10949837
1756894320,1.926200867,128,36180,164855,10949869
1756894320,1.927200794,128,35565,164840,10949901
1756894320,1.927200794,128,34740,165050,10949933
1756894320,1.927200794,128,34370,164735,10949965
1756894320,1.928703308,128,33595,164545,10949997
1756894320,1.928703308,128,33455,164485,10950029
1756894320,1.929706812,128,33775,164545,10950061
1756894320,1.932706118,128,34510,164080,10950093
1756894320,1.932706118,128,35255,164000,10950125
1756894320,1.932706118,128,36360,164110,10950157
1756894320,1.935709953,128,37660,164115,10950189
1756894320,1.936709404,128,38640,164065,10950221
1756894320,1.936709404,128,39315,164265,10950253
1756894320,1.936709404,128,39535,164445,10950285
1756894320,1.936709404,128,39650,164705,10950317
1756894320,1.939707756,128,39820,164825,10950349
1756894320,1.94070673,128,39810,164905,10950381
1756894320,1.94070673,128,38635,165070,10950413
1756894320,1.94070673,128,37705,165020,10950445
1756894320,1.94070673,128,37455,164855,10950477
1756894320,1.941707611,128,36960,165075,10950509
1756894320,1.942707777,128,36705,165125,10950541
1756894320,1.942707777,128,36505,165000,10950573
1756894320,1.942707777,128,36245,164830,10950605
1756894320,1.942707777,128,36505,164750,10950637
1756894320,1.942707777,128,36765,164540,10950669
1756894320,1.943707228,128,36930,164390,10950701
1756894320,1.943707228,128,36825,164135,10950733
1756894320,1.944267511,128,37155,164115,10950765
1756894320,1.944267511,128,37605,163990,10950797
1756894320,1.944267511,128,37930,163900,10950829
1756894320,1.944267511,128,38370,164060,10950861
1756894320,1.944267511,128,38505,164185,10950893
1756894320,1.954912663,128,38455,164355,10950925
1756894320,1.954912663,128,38825,164350,10950957
1756894320,1.955913067,128,38660,164470,10950989
1756894320,1.955913067,128,38125,164665,10951021
1756894320,1.956912041,128,37315,164775,10951053
1756894320,1.957913399,128,37190,164920,10951085
1756894320,1.957913399,128,36970,164970,10951117
1756894320,1.958912134,128,36750,165235,10951149
1756894320,1.959911823,128,36365,165240,10951181
1756894320,1.960912943,128,36090,165395,10951213
1756894320,1.963914394,128,35965,165255,10951245
1756894320,1.963914394,128,35965,165025,10951277
1756894320,1.963914394,128,36470,165110,10951309
1756894320,1.967913389,128,36725,164990,10951341
1756894320,1.967913389,128,36960,164765,10951373
1756894320,1.968911409,128,37390,164570,10951405
1756894320,1.969913006,128,37810,164550,10951437
1756894320,1.969913006,128,37705,164500,10951469
1756894320,1.970913172,128,37820,164625,10951501
1756894320,1.970913172,128,37700,164385,10951533
1756894320,1.971911669,128,37320,164670,10951565
1756894320,1.972911596,128,37250,164615,10951597
1756894320,1.972911596,128,37295,164545,10951629
1756894320,1.973912001,128,37375,164730,10951661
1756894320,1.976911783,128,37415,164895,10951693
1756894320,1.976911783,128,37335,164970,10951725
1756894320,1.976911783,128,37325,164975,10951757
1756894320,1.978912354,128,37320,165105,10951789
1756894320,1.980914354,128,37150,165175,10951821
1756894320,1.983911991,128,37055,165360,10951853
1756894320,1.983911991,128,36980,165345,10951885
1756894320,1.983911991,128,36275,165345,10951917
1756894320,1.983911991,128,36030,165040,10951949
1756894320,1.983911991,128,36865,165170,10951981
1756894320,1.98541522,128,37525,165040,10952013
1756894320,1.98541522,128,38145,164910,10952045
1756894320,1.986418962,128,38750,164825,10952077
1756894320,1.986418962,128,38765,164750,10952109
1756894320,1.986418962,128,38880,164995,10952141
1756894320,1.986418962,128,39040,164850,10952173
1756894320,1.987419128,128,38940,164870,10952205
1756894320,1.987419128,128,38780,164910,10952237
1756894320,1.987953901,128,38770,164925,10952269
1756894320,1.987953901,128,38485,165090,10952301
1756894320,1.987953901,128,38325,165310,10952333
1756894320,1.987953901,128,38025,165370,10952365
1756894320,1.987953901,128,37780,165605,10952397
1756894320,1.989498138,128,37555,165560,10952429
1756894320,1.989498138,128,37055,165665,10952461
1756894320,1.989498138,128,37080,165525,10952493
1756894320,1.989498138,128,36530,165655,10952525
1756894320,1.997503519,128,36605,165695,10952557
1756894320,1.998502493,128,36505,165600,10952589
1756894320,1.998502493,128,36965,165500,10952621
1756894320,1.99950242,128,37155,165390,10952653
1756894320,2.000501871,128,37430,165280,10952685
1756894320,2.001501322,128,37800,165070,10952717
1756894320,2.002502203,128,38150,165165,10952749
1756894320,2.002502203,128,38380,165195,10952781
1756894320,2.003501415,128,38485,165125,10952813
1756894320,2.004502773,128,38495,165115,10952845
1756894320,2.006501198,128,38350,165390,10952877
1756894320,2.007501125,128,38265,165340,10952909
1756894320,2.010501385,128,38175,165295,10952941
1756894320,2.010501385,128,37875,165680,10952973
1756894320,2.011501074,128,37735,165730,10953005
1756894320,2.011501074,128,37475,165580,10953037
1756894320,2.01250124,128,37195,165875,10953069
1756894320,2.013501167,128,36890,166045,10953101
1756894320,2.013501167,128,36795,166195,10953133
1756894320,2.034040689,128,36630,165945,10953165
1756894320,2.034040689,128,36485,165895,10953197
1756894320,2.034040689,128,36760,165805,10953229
1756894320,2.034040689,128,36825,165615,10953261
1756894320,2.034040689,128,37130,165410,10953293
1756894320,2.066032171,128,37470,165220,10953325
1756894320,2.067033768,128,37600,165310,10953357
1756894320,2.067033768,128,37915,165280,10953389
1756894320,2.067033768,128,37945,165105,10953421
1756894320,2.067033768,128,38155,164985,10953453
1756894320,2.067033768,128,38240,164945,10953485
1756894320,2.068033457,128,38435,165065,10953517
1756894320,2.069041252,128,38345,165015,10953549
1756894320,2.069041252,128,38415,165275,10953581
1756894320,2.069041252,128,38340,165275,10953613
1756894320,2.069041252,128,38310,165340,10953645
1756894320,2.069041252,128,38065,165505,10953677
1756894320,2.069041252,128,37485,165465,10953709
1756894320,2.071043015,128,36995,165595,10953741
1756894320,2.071043015,128,36540,165610,10953773
1756894320,2.071043015,128,36165,165690,10953805
1756894320,2.072033405,128,35830,165590,10953837
1756894320,2.072033405,128,36065,165610,10953869
1756894320,2.072033405,128,36100,165550,10953901
1756894320,2.074043512,128,36060,165440,10953933
1756894320,2.074043512,128,36250,165460,10953965
1756894320,2.074043512,128,36620,165230,10953997
1756894320,2.074043512,128,36895,165010,10954029
1756894320,2.074043512,128,37315,165080,10954061
1756894320,2.076040506,128,37490,164975,10954093
1756894320,2.076040506,128,37575,165075,10954125
1756894320,2.076040506,128,37675,165140,10954157
1756894320,2.076040506,128,37460,165115,10954189
1756894320,2.076040506,128,37580,165155,10954221
1756894320,2.078563452,128,37475,165315,10954253
1756894320,2.078563452,128,37430,165355,10954285
1756894320,2.078563452,128,37145,165325,10954317
1756894320,2.078563452,128,36745,165405,10954349
1756894320,2.078563452,128,36665,165485,10954381
1756894320,2.079550028,128,36120,165510,10954413
1756894320,2.079550028,128,36160,165470,10954445
1756894320,2.081562281,128,35860,165385,10954477
1756894320,2.081562281,128,35955,165230,10954509
1756894320,2.081562281,128,35840,165210,10954541
1756894320,2.081562281,128,35975,164975,10954573
1756894320,2.081562281,128,36340,164850,10954605
1756894320,2.089550018,128,36535,164635,10954637
1756894320,2.090549469,128,36920,164605,10954669
1756894320,2.090549469,128,37420,164490,10954701
1756894320,2.091549635,128,37540,164595,10954733
1756894320,2.091549635,128,37790,164705,10954765
1756894320,2.092549801,128,37780,164635,10954797
1756894320,2.093549252,128,37850,164480,10954829
1756894320,2.094549656,128,37735,164450,10954861
1756894320,2.094549656,128,37715,164625,10954893
1756894320,2.095549345,128,37370,164710,10954925
1756894320,2.096549988,128,37150,164800,10954957
1756894320,2.096549988,128,37045,164825,10954989
1756894320,2.097551107,128,36790,165260,10955021
1756894320,2.100549459,128,36370,165465,10955053
1756894320,2.100549459,128,36070,165665,10955085
1756894320,2.103549004,128,35840,165605,10955117
1756894320,2.103549004,128,35425,165795,10955149
1756894320,2.104549646,128,35655,165530,10955181
1756894320,2.104549646,128,35555,165520,10955213
1756894320,2.105548859,128,35955,163500,10955245
1756894320,2.105548859,128,36165,163055,10955277
1756894320,2.106549263,128,36540,164040,10955309
1756894320,2.106549263,128,37120,164170,10955341
1756894320,2.107549667,128,37370,164100,10955373
1756894320,2.108549118,128,37580,164045,10955405
1756894320,2.108549118,128,37395,163955,10955437
1756894320,2.109549999,128,37425,164085,10955469
1756894320,2.109549999,128,37295,164185,10955501
1756894320,2.112549305,128,37305,164085,10955533
1756894320,2.112549305,128,37160,164350,10955565
1756894320,2.112549305,128,36975,164225,10955597
1756894320,2.115550518,128,36595,164465,10955629
1756894320,2.116549492,128,36295,164515,10955661
1756894320,2.117550611,128,35840,164650,10955693
1756894320,2.117550611,128,35560,164695,10955725
1756894320,2.117550611,128,34995,164820,10955757
1756894320,2.117550611,128,34885,164900,10955789
1756894320,2.121549129,128,34560,164960,10955821
1756894320,2.121549129,128,34855,164965,10955853
1756894320,2.121549129,128,35140,164675,10955885
1756894320,2.121549129,128,35485,164385,10955917
1756894320,2.121549129,128,35890,164315,10955949
1756894320,2.122549772,128,36290,164225,10955981
1756894320,2.123549938,128,36600,164365,10956013
1756894320,2.123549938,128,36645,164160,10956045
1756894320,2.123549938,128,36925,164160,10956077
1756894320,2.123549938,128,37025,163965,10956109
1756894320,2.123549938,128,37050,164570,10956141
1756894320,2.123549938,128,37140,165270,10956173
1756894320,2.123549938,128,37185,165270,10956205
1756894320,2.125053883,128,36870,164975,10956237
1756894320,2.125298262,128,36540,165055,10956269
1756894320,2.125298262,128,36205,164925,10956301
1756894320,2.125298262,128,35870,165155,10956333
1756894320,2.125298262,128,35665,165215,10956365
1756894320,2.126890659,128,35100,165215,10956397
1756894320,2.126890659,128,34635,164890,10956429
1756894320,2.126890659,128,34600,164760,10956461
1756894320,2.126890659,128,34560,164635,10956493
1756894320,2.126890659,128,35020,164645,10956525
1756894320,2.126890659,128,35365,164725,10956557
1756894320,2.126890659,128,35700,165030,10956589
1756894320,2.126890659,128,35930,164970,10956621
1756894320,2.127895117,128,36550,164585,10956653
1756894320,2.127895117,128,36830,164525,10956685
1756894320,2.127895117,128,37015,164430,10956717
1756894320,2.127895117,128,37055,164780,10956749
1756894320,2.127895117,128,36800,164565,10956781
1756894320,2.127895117,128,37010,162450,10956813
1756894320,2.127895117,128,36975,163470,10956845
1756894320,2.127895117,128,36880,164770,10956877
1756894320,2.127895117,128,36480,165505,10956909
1756894320,2.127895117,128,36025,164905,10956941
1756894320,2.127895117,128,35960,164490,10956973
1756894320,2.127895117,128,35555,164600,10957005
1756894320,2.127895117,128,35235,164805,10957037
1756894320,2.137893915,128,35140,164695,10957069
1756894320,2.137893915,128,35135,164930,10957101
1756894320,2.138893843,128,34930,164960,10957133
1756894320,2.138893843,128,34905,165095,10957165
1756894320,2.138893843,128,35120,165160,10957197
1756894320,2.139893532,128,35445,165140,10957229
1756894320,2.14889431,128,35545,165110,10957261
1756894320,2.149894476,128,35875,165490,10957293
1756894320,2.149894476,128,36090,165790,10957325
1756894320,2.150894403,128,36620,165840,10957357
1756894320,2.150894403,128,36790,165700,10957389
1756894320,2.150894403,128,37290,165580,10957421
1756894320,2.151893616,128,37530,165640,10957453
1756894320,2.151893616,128,37475,166005,10957485
1756894320,2.152893543,128,37270,165750,10957517
1756894320,2.152893543,128,37320,163310,10957549
1756894320,2.152893543,128,36615,163365,10957581
1756894320,2.153894424,128,36350,165080,10957613
1756894320,2.153894424,128,35590,166490,10957645
1756894320,2.153894424,128,35200,167185,10957677
1756894320,2.154893875,128,34755,167480,10957709
1756894320,2.154893875,128,34420,167340,10957741
1756894320,2.155893564,128,34085,167485,10957773
1756894320,2.155893564,128,33485,168720,10957805
1756894320,2.155893564,128,33360,168560,10957837
1756894320,2.155893564,128,33540,161085,10957869
1756894320,2.158893585,128,33710,163070,10957901
1756894320,2.158893585,128,33960,166545,10957933
1756894320,2.158893585,128,34250,165550,10957965
1756894320,2.158893585,128,34780,166890,10957997
1756894320,2.159893513,128,35790,165410,10958029
1756894320,2.160893917,128,36475,165635,10958061
1756894320,2.162895203,128,36765,168950,10958093
1756894320,2.162895203,128,36980,169530,10958125
1756894320,2.163896322,128,37365,164730,10958157
1756894320,2.166893721,128,37500,165205,10958189
1756894320,2.166893721,128,37850,167650,10958221
1756894320,2.166893721,128,37215,166770,10958253
1756894320,2.166893721,128,36355,167670,10958285
1756894320,2.166893721,128,35755,169275,10958317
1756894320,2.173036098,128,35150,171655,10958349
1756894320,2.173036098,128,34815,167675,10958381
1756894320,2.173036098,128,34550,160115,10958413
1756894320,2.173036098,128,34535,164535,10958445
1756894320,2.173036098,128,34225,170265,10958477
1756894320,2.173036098,128,33825,169670,10958509
1756894320,2.173036098,128,33945,165710,10958541
1756894320,2.176043749,128,33910,169660,10958573
1756894320,2.176043749,128,34220,173770,10958605
1756894320,2.176043749,128,35005,173735,10958637
1756894320,2.176043749,128,35195,175335,10958669
1756894320,2.177036524,128,35365,162735,10958701
1756894320,2.187475204,128,35345,160160,10958733
1756894320,2.189476252,128,35585,163825,10958765
1756894320,2.189476252,128,35640,166370,10958797
1756894320,2.189476252,128,35810,170855,10958829
1756894320,2.190475464,128,35635,169750,10958861
1756894320,2.190475464,128,35220,166415,10958893
1756894320,2.191475391,128,35740,173340,10958925
1756894320,2.191475391,128,35475,173270,10958957
1756894320,2.192475557,128,35345,173690,10958989
1756894320,2.192475557,128,35135,167825,10959021
1756894320,2.193475962,128,34885,167940,10959053
1756894320,2.193475962,128,34960,173535,10959085
1756894320,2.194475651,128,34690,177270,10959117
1756894320,2.194475651,128,34605,174770,10959149
1756894320,2.195475817,128,35060,180485,10959181
1756894320,2.195475817,128,35430,179740,10959213
1756894320,2.195475817,128,35920,171295,10959245
1756894320,2.196475506,128,35780,176205,10959277
1756894320,2.201475382,128,35660,177900,10959309
1756894320,2.202476263,128,35545,174005,10959341
1756894320,2.202476263,128,35065,166195,10959373
1756894320,2.202476263,128,35400,171990,10959405
1756894320,2.203475237,128,35110,169330,10959437
1756894320,2.206475019,128,34535,173760,10959469
1756894320,2.206475019,128,34090,173220,10959501
1756894320,2.206475019,128,34455,169395,10959533
1756894320,2.206475019,128,35630,174980,10959565
1756894320,2.20947504,128,35380,179955,10959597
1756894320,2.20947504,128,35955,174835,10959629
1756894320,2.210475922,128,36335,174440,10959661
1756894320,2.213476419,128,37035,182685,10959693
1756894320,2.213476419,128,37505,173730,10959725
1756894320,2.213476419,128,38090,159615,10959757
1756894320,2.214476347,128,38125,161470,10959789
1756894320,2.214476347,128,38085,163300,10959821
1756894320,2.214476347,128,37840,166240,10959853
1756894320,2.218923569,128,38140,169530,10959885
1756894320,2.218923569,128,38480,169160,10959917
1756894320,2.218923569,128,39010,169780,10959949
1756894320,2.220390797,128,38900,169895,10959981
1756894320,2.220390797,128,39335,170500,10960013
1756894320,2.220390797,128,39770,171035,10960045
1756894320,2.222401619,128,39925,172510,10960077
1756894320,2.222401619,128,40070,170410,10960109
1756894320,2.222401619,128,39565,174150,10960141
1756894320,2.222401619,128,39305,174795,10960173
1756894320,2.222401619,128,38585,176990,10960205
1756894320,2.237398624,128,38100,183350,10960237
1756894320,2.237398624,128,37025,185265,10960269
1756894320,2.238399029,128,35850,179875,10960301
1756894320,2.239397287,128,35110,178760,10960333
1756894320,2.239397287,128,35590,185030,10960365
1756894320,2.240397692,128,35830,183340,10960397
1756894320,2.248399019,128,36230,179890,10960429
1756894320,2.249398708,128,36490,179850,10960461
1756894320,2.249398708,128,36570,183580,10960493
1756894320,2.250397921,128,37515,184550,10960525
1756894320,2.250397921,128,38685,178135,10960557
1756894320,2.250397921,128,39615,188990,10960589
1756894320,2.251398325,128,40400,177730,10960621
1756894320,2.251398325,128,41495,188400,10960653
1756894320,2.252398014,128,42210,183675,10960685
1756894320,2.252398014,128,42225,174590,10960717
1756894320,2.253397226,128,42340,169540,10960749
1756894320,2.258398056,128,42490,162050,10960781
1756894320,2.260397196,128,42785,165690,10960813
1756894320,2.260397196,128,42810,169365,10960845
1756894320,2.260397196,128,42335,169345,10960877
1756894320,2.261397123,128,41445,169090,10960909
1756894320,2.261397123,128,40885,172125,10960941
1756894320,2.261397123,128,40250,173935,10960973
1756894320,2.261397123,128,39425,173190,10961005
1756894320,2.261397123,128,38600,181105,10961037
1756894320,2.261397123,128,37915,189630,10961069
1756894320,2.264398575,128,37335,194210,10961101
1756894320,2.264398575,128,37115,192180,10961133
1756894320,2.268260717,128,37330,188545,10961165
1756894320,2.268260717,128,37310,186060,10961197
1756894320,2.269265652,128,38765,171475,10961229
1756894320,2.269265652,128,40190,164475,10961261
1756894320,2.269265652,128,40420,165500,10961293
1756894320,2.269265652,128,40455,173780,10961325
1756894320,2.275271177,128,40940,181755,10961357
1756894320,2.276778221,128,42210,180385,10961389
1756894320,2.276778221,128,42940,183415,10961421
1756894320,2.276778221,128,42610,186540,10961453
1756894320,2.276778221,128,42785,189960,10961485
1756894320,2.283370495,128,43015,189665,10961517
1756894320,2.285368681,128,43040,196055,10961549
1756894320,2.285368681,128,42715,199135,10961581
1756894320,2.285368681,128,43130,180840,10961613
1756894320,2.291368246,128,43045,168165,10961645
1756894320,2.291368246,128,43035,178905,10961677
1756894320,2.291368246,128,42800,178155,10961709
1756894320,2.292368174,128,42630,174145,10961741
1756894320,2.293368101,128,43350,180880,10961773
1756894320,2.294387579,128,43925,184440,10961805
1756894320,2.294387579,128,43505,179895,10961837
1756894320,2.295368195,128,42360,179405,10961869
1756894320,2.295368195,128,41320,175920,10961901
1756894320,2.296367884,128,40620,175660,10961933
1756894320,2.297370434,128,40400,180005,10961965
1756894320,2.299369812,128,40040,189270,10961997
1756894320,2.299369812,128,40650,188425,10962029
1756894320,2.300368786,128,41385,175620,10962061
1756894320,2.300368786,128,41830,173840,10962093
1756894320,2.303368092,128,43195,174525,10962125
1756894320,2.303368092,128,44330,169775,10962157
1756894320,2.303368092,128,44660,161965,10962189
1756894320,2.304368019,128,45445,169585,10962221
1756894320,2.304368019,128,46135,172475,10962253
1756894320,2.304368019,128,45860,181090,10962285
1756894320,2.305367708,128,46705,186580,10962317
1756894320,2.305367708,128,46365,177185,10962349
1756894320,2.306367874,128,46080,177335,10962381
1756894320,2.306367874,128,44820,185165,10962413
1756894320,2.306367874,128,44395,192745,10962445
1756894320,2.307368517,128,44490,186165,10962477
1756894320,2.307368517,128,43980,188550,10962509
1756894320,2.307368517,128,44080,187430,10962541
1756894320,2.308367968,128,44030,194680,10962573
1756894320,2.308367968,128,44315,197155,10962605
1756894320,2.308367968,128,45660,180755,10962637
1756894320,2.312367916,128,46950,180455,10962669
1756894320,2.31336832,128,48105,190525,10962701
1756894320,2.31336832,128,49010,190545,10962733
1756894320,2.31336832,128,48555,190420,10962765
1756894320,2.31336832,128,47440,191200,10962797
1756894320,2.320368528,128,46215,190030,10962829
1756894320,2.320368528,128,44935,198605,10962861
1756894320,2.320368528,128,43150,200125,10962893
1756894320,2.320368528,128,41075,205355,10962925
1756894320,2.320368528,128,40470,201930,10962957
1756894320,2.320368528,128,42780,187840,10962989
1756894320,2.321367979,128,44095,176375,10963021
1756894320,2.321367979,128,45400,186310,10963053
1756894320,2.321367979,128,47735,204125,10963085
1756894320,2.321367979,128,49770,190400,10963117
1756894320,2.322368383,128,50620,193590,10963149
1756894320,2.322368383,128,50700,193315,10963181
1756894320,2.333925486,128,51925,194180,10963213
1756894320,2.333925486,128,52190,181405,10963245
1756894320,2.334925175,128,50895,181905,10963277
1756894320,2.334925175,128,49900,199935,10963309
1756894320,2.334925175,128,48700,205190,10963341
1756894320,2.335925102,128,46805,200160,10963373
1756894320,2.338925123,128,45180,194940,10963405
1756894320,2.338925123,128,44030,183530,10963437
1756894320,2.338925123,128,45060,177530,10963469
1756894320,2.341925144,128,46360,169690,10963501
1756894320,2.342924833,128,46635,181005,10963533
1756894320,2.342924833,128,47470,190960,10963565
1756894320,2.343925953,128,46895,199305,10963597
1756894320,2.343925953,128,45755,199485,10963629
1756894320,2.343925953,128,45635,200660,10963661
1756894320,2.344926596,128,46170,211995,10963693
1756894320,2.344926596,128,47850,209690,10963725
1756894320,2.344926596,128,49115,209415,10963757
1756894320,2.34592557,128,49325,198230,10963789
1756894320,2.34592557,128,49190,183155,10963821
1756894320,2.34592557,128,50250,189235,10963853
1756894320,2.346925974,128,51180,181455,10963885
1756894320,2.346925974,128,50830,178880,10963917
1756894320,2.346925974,128,51460,190250,10963949
1756894320,2.354926109,128,52115,197145,10963981
1756894320,2.354926109,128,51935,195725,10964013
1756894320,2.355926514,128,51430,195495,10964045
1756894320,2.355926514,128,49535,184515,10964077
1756894320,2.355926514,128,48510,190355,10964109
1756894320,2.360430717,128,46535,201935,10964141
1756894320,2.360430717,128,45680,220270,10964173
1756894320,2.362037182,128,44935,215285,10964205
1756894320,2.362037182,128,43630,193785,10964237
1756894320,2.362037182,128,42715,190895,10964269
1756894320,2.362037182,128,42770,220815,10964301
1756894320,2.371513844,128,43065,229765,10964333
1756894320,2.371513844,128,43410,208200,10964365
1756894320,2.371513844,128,44945,188835,10964397
1756894320,2.372514725,128,48170,173470,10964429
1756894320,2.378513336,128,49055,177255,10964461
1756894320,2.378513336,128,49565,188200,10964493
1756894320,2.379514456,128,51400,187105,10964525
1756894320,2.380515337,128,54520,191075,10964557
1756894320,2.380515337,128,56530,196995,10964589
1756894320,2.381514311,128,57925,216230,10964621
1756894320,2.382513523,128,58295,222410,10964653
1756894320,2.382513523,128,57140,212555,10964685
1756894320,2.384512901,128,55160,192920,10964717
1756894320,2.384512901,128,54435,184450,10964749
1756894320,2.384512901,128,54620,166130,10964781
1756894320,2.384512901,128,53435,159070,10964813
1756894320,2.388018608,128,52040,175685,10964845
1756894320,2.401268721,128,50985,192350,10964877
1756894320,2.401268721,128,50085,198705,10964909
1756894320,2.401268721,128,48820,215110,10964941
1756894320,2.401268721,128,48575,208710,10964973
1756894320,2.403136969,128,48965,213045,10965005
1756894320,2.403136969,128,48955,210725,10965037
1756894320,2.403136969,128,49990,217810,10965069
1756894320,2.435120106,128,51715,206040,10965101
1756894320,2.435120106,128,52350,192700,10965133
1756894320,2.435120106,128,53095,194265,10965165
1756894320,2.435120106,128,53010,207305,10965197
1756894320,2.435120106,128,54195,205590,10965229
1756894320,2.436118603,128,55425,224605,10965261
1756894320,2.436118603,128,55530,222325,10965293
1756894320,2.439119816,128,55755,204450,10965325
1756894320,2.439119816,128,55315,217185,10965357
1756894320,2.439119816,128,54440,204460,10965389
1756894320,2.439119816,128,53435,186460,10965421
1756894320,2.439119816,128,52230,166610,10965453
1756894320,2.440118551,128,53085,171230,10965485
1756894320,2.440118551,128,54270,196780,10965517
1756894320,2.440118551,128,54180,203145,10965549
1756894320,2.440118551,128,53560,202180,10965581
1756894320,2.440118551,128,52390,199170,10965613
1756894320,2.440118551,128,51205,192320,10965645
1756894320,2.441118002,128,50925,190385,10965677
1756894320,2.441118002,128,50695,186965,10965709
1756894320,2.442118883,128,50440,182940,10965741
1756894320,2.442118883,128,51505,198800,10965773
1756894320,2.442118883,128,53705,205240,10965805
1756894320,2.442118883,128,54695,202140,10965837
1756894320,2.442118883,128,54265,199805,10965869
1756894320,2.442118883,128,51895,197550,10965901
1756894320,2.443118572,128,49540,227540,10965933
1756894320,2.443118572,128,47025,239100,10965965
1756894320,2.44354701,128,45050,243015,10965997
1756894320,2.44354701,128,45330,265550,10966029
1756894320,2.44354701,128,50355,263435,10966061
1756894320,2.44354701,128,55985,213975,10966093
1756894320,2.445100069,128,56125,164205,10966125
1756894320,2.445100069,128,58000,154640,10966157
1756894320,2.445100069,128,58820,167545,10966189
1756894320,2.445100069,128,58700,197910,10966221
1756894320,2.445100069,128,56620,211585,10966253
1756894320,2.445100069,128,55835,206360,10966285
1756894320,2.445100069,128,55435,211960,10966317
1756894320,2.445100069,128,55120,189045,10966349
1756894320,2.477610111,128,53495,181380,10966381
1756894320,2.477610111,128,51325,188615,10966413
1756894320,2.477610111,128,50085,202655,10966445
1756894320,2.478609324,128,49620,213990,10966477
1756894320,2.478609324,128,50165,206690,10966509
1756894320,2.478609324,128,51295,202495,10966541
1756894320,2.479609966,128,53855,201635,10966573
1756894320,2.479609966,128,56555,198590,10966605
1756894320,2.480612516,128,57660,191070,10966637
1756894320,2.480612516,128,58570,201010,10966669
1756894320,2.480612516,128,58915,226345,10966701
1756894320,2.481610298,128,59630,223980,10966733
1756894320,2.481610298,128,59815,205870,10966765
1756894320,2.481610298,128,59310,199320,10966797
1756894320,2.482609987,128,57350,199240,10966829
1756894320,2.484610081,128,55185,204865,10966861
1756894320,2.484610081,128,54420,201545,10966893
1756894320,2.485609531,128,53530,213165,10966925
1756894320,2.485609531,128,53765,226680,10966957
1756894320,2.485609531,128,55805,216050,10966989
1756894320,2.486609697,128,56610,210820,10967021
1756894320,2.489609718,128,55955,196520,10967053
1756894320,2.489609718,128,54695,189095,10967085
1756894320,2.489609718,128,54875,201835,10967117
1756894320,2.489609718,128,54350,211245,10967149
1756894320,2.489609718,128,54340,223085,10967181
1756894320,2.490609646,128,55540,223385,10967213
1756894320,2.490609646,128,56050,220230,10967245
1756894320,2.490609646,128,56700,189500,10967277
1756894320,2.490609646,128,54925,194890,10967309
1756894320,2.493609905,128,52440,215465,10967341
1756894320,2.493609905,128,50955,222330,10967373
1756894320,2.493609905,128,51230,226235,10967405
