t_abs_unix,t_rel_s,exg_status,exg_ch1_24bit,exg_ch2_24bit,device_timestamp,emg_ch1_filtered,emg_ch1_envelope,emg_cycle_peak,emg_X
1756958126.830141,0.0,128,1179650,742860,13355664,1179650.0,0.0,0,
1756958126.830141,0.0,128,878090,788690,13355696,191147.2902995196,479.2011744554444,0,
1756958126.830141,0.0,128,646715,820985,13355728,287422.58290531073,1198.560603052002,0,
1756958126.830141,0.0,128,440180,837040,13355760,315799.4592541184,1987.2566911948122,0,
1756958126.8451533,0.015012264251708984,128,369450,828410,13355792,124186.02188412822,35462.561037513115,0,
1756958126.8476562,0.017515182495117188,128,243805,820985,13355824,11394.150303788076,34038.13662762961,1,
1756958126.8486607,0.01851963996887207,128,152865,799830,13355856,-59736.708001197316,34670.91675653196,0,
1756958126.8486607,0.01851963996887207,128,182280,759395,13355888,-58622.1767579143,34730.96192852663,0,
1756958126.8486607,0.01851963996887207,128,376845,735850,13355920,-15249.79103597282,34682.123151074695,0,
1756958126.8486607,0.01851963996887207,128,649800,711100,13355952,77602.80295486655,34789.72415414502,0,
1756958126.8486607,0.01851963996887207,128,1168535,671815,13355984,261799.11583878196,35358.830663252396,0,
1756958126.8486607,0.01851963996887207,128,1194605,694285,13356016,408571.5457160567,36294.465016712325,0,
1756958126.849665,0.01952385902404785,128,1230600,713170,13356048,739230.2721762555,53598.961224176724,0,
1756958126.849665,0.01952385902404785,128,1269035,718340,13356080,770925.4331789635,55397.279616711,0,
1756958126.849665,0.01952385902404785,128,1297365,724110,13356112,799385.8204290872,57262.439106966034,0,
1756958126.849665,0.01952385902404785,128,1309635,728800,13356144,821781.8617230038,59179.06897201688,0,
1756958126.849665,0.01952385902404785,128,1316475,730735,13356176,838265.6412250117,61132.21829388849,0,
1756958126.849665,0.01952385902404785,128,1302080,735520,13356208,845529.9059994912,63098.68244098503,0,
1756958126.849665,0.01952385902404785,128,1280700,735075,13356240,844155.6235885845,65056.7714252862,0,
1756958126.8506646,0.020523548126220703,128,1249435,738105,13356272,750857.9587397887,81865.16682947488,0,
1756958126.8506646,0.020523548126220703,128,1226075,737520,13356304,736533.5863553615,83506.4031505554,0,
1756958126.8506646,0.020523548126220703,128,1025795,762130,13356336,679892.3796035809,85001.52693649674,0,
1756958126.8536634,0.023522377014160156,128,724750,809095,13356368,187706.60870765522,92199.76241903378,0,
1756958126.8536634,0.023522377014160156,128,548310,825900,13356400,136148.6087766193,92309.94100831704,0,
1756958126.8536634,0.023522377014160156,128,403325,832950,13356432,64520.34355916333,92240.27322639656,0,
1756958126.8536634,0.023522377014160156,128,320265,825175,13356464,-8884.002039827086,92031.30127085253,0,
1756958126.8546638,0.024522781372070312,128,135615,812785,13356496,-299721.9368100624,97125.17224297524,0,
1756958126.9204662,0.09032511711120605,128,209330,774165,13356528,-36888.949054658064,59587.110310905635,0,
1756958126.9204662,0.09032511711120605,128,246735,749135,13356560,-28337.998574897683,59508.76961865141,0,
1756958126.922466,0.09232497215270996,128,501515,718895,13356592,170048.0886910867,64798.79280973808,0,
1756958126.922466,0.09232497215270996,128,970755,690470,13356624,279367.04110267246,65336.70970315417,0,
1756958126.922466,0.09232497215270996,128,1230645,675315,13356656,419342.1918039023,66224.19203429538,0,
1756958126.922466,0.09232497215270996,128,1209765,706870,13356688,521417.273327377,67365.34898618226,0,
1756958126.922466,0.09232497215270996,128,1252070,716995,13356720,607788.1476977181,68720.17457350432,0,
1756958126.922466,0.09232497215270996,128,1286215,723530,13356752,680055.7049561335,70252.77649366052,0,
1756958126.922466,0.09232497215270996,128,1305140,725515,13356784,737954.1987575765,71926.6862060769,0,
1756958126.922466,0.09232497215270996,128,1312710,731765,13356816,782159.690339382,73707.2214633876,0,
1756958126.923974,0.09383296966552734,128,1312665,732280,13356848,787662.1486074051,99778.10331610135,0,
1756958126.923974,0.09383296966552734,128,1293290,733710,13356880,781570.7613883071,101487.33938202387,0,
1756958126.9249794,0.09483838081359863,128,1265385,737770,13356912,684237.8564890483,115849.78867107743,0,
1756958126.9249794,0.09483838081359863,128,1249775,739275,13356944,671514.6757805148,117242.8257687483,0,
1756958126.9249794,0.09483838081359863,128,1166745,745260,13356976,641807.6956264075,118557.8959500727,0,
1756958126.9249794,0.09483838081359863,128,857220,791050,13357008,549801.4461301669,119639.01206424215,0,
1756958126.9260645,0.09592342376708984,128,640770,822710,13357040,140430.0601561317,120190.93510465327,0,
1756958126.9260645,0.09592342376708984,128,433740,836740,13357072,65931.12152830363,120054.90719470604,0,
1756958126.9260645,0.09592342376708984,128,364580,829235,13357104,-6661.401258702317,119770.63269029111,0,
1756958126.9260645,0.09592342376708984,128,221270,820490,13357136,-93728.95389228698,119705.34689395447,0,
1756958126.9260645,0.09592342376708984,128,166585,795480,13357168,-172410.35915032448,119837.4769583324,0,
1756958126.927068,0.09692692756652832,128,180865,758715,13357200,-331476.8770114201,125043.88249748269,0,
1756958126.927129,0.09698796272277832,128,393310,733570,13357232,-296527.80191719736,125473.78812396259,0,
1756958126.927129,0.09698796272277832,128,685795,709095,13357264,-205139.5167809267,125673.50798751098,0,
1756958126.927129,0.09698796272277832,128,1186450,673270,13357296,-25232.886239434214,125421.70601935704,0,
1756958126.927129,0.09698796272277832,128,1194530,694760,13357328,115105.92032668562,125395.84461890708,0,
1756958126.927129,0.09698796272277832,128,1234760,712795,13357360,231595.97375294103,125662.08551894079,0,
1756958126.927129,0.09698796272277832,128,1273715,721405,13357392,329128.56116363365,126172.17056350755,0,
1756958126.927129,0.09698796272277832,128,1300405,726340,13357424,409129.0023431532,126881.53581737293,0,
1756958126.927129,0.09698796272277832,128,1309565,729095,13357456,471596.50338978606,127745.72707561274,0,
1756958126.927129,0.09698796272277832,128,1319800,730820,13357488,520628.44979962165,128730.6736153078,0,
1756958126.927129,0.09698796272277832,128,1302800,733295,13357520,553253.5183315307,129794.941099573,0,
1756958126.927129,0.09698796272277832,128,1281045,737195,13357552,572122.5214384629,130903.84458264249,0,
1756958126.927129,0.09698796272277832,128,1265930,737750,13357584,581794.4849403711,132034.2154295,0,
1756958126.9280727,0.0979316234588623,128,1224195,736995,13357616,532036.5090813148,141301.19923632842,0,
1756958126.9280727,0.0979316234588623,128,1006620,769405,13357648,479158.6323145767,142148.19883792312,0,
1756958126.9280727,0.0979316234588623,128,712485,814920,13357680,373108.1160926254,142727.20920959598,0,
1756958126.9280727,0.0979316234588623,128,530295,826965,13357712,250778.64158768806,142998.09127763912,0,
1756958126.9280727,0.0979316234588623,128,401850,835175,13357744,127950.0582567725,142960.3662589609,0,
1756958126.9280727,0.0979316234588623,128,309310,827250,13357776,12889.199153707566,142634.28130142915,0,
1756958126.9280727,0.0979316234588623,128,120235,811965,13357808,-116890.7562332309,142569.74296856567,0,
1756958126.9280727,0.0979316234588623,128,200970,772180,13357840,-198914.3194949272,142710.99732379778,0,
1756958126.9280727,0.0979316234588623,128,258210,746475,13357872,-249060.1718279494,142977.61187661148,0,
1756958126.9280727,0.0979316234588623,128,507185,720265,13357904,-232788.1713367824,143202.76456124737,0,
1756958126.9280727,0.0979316234588623,128,999300,685870,13357936,-112497.28886575816,143125.78675009223,0,
1756958126.9280727,0.0979316234588623,128,1222360,678085,13357968,28979.79835237135,142839.62579215318,0,
1756958126.9280727,0.0979316234588623,128,1214755,707460,13358000,136168.84154380625,142822.9023134089,0,
1756958126.9290729,0.09893178939819336,128,1257300,717055,13358032,401655.24498081906,149169.61140008952,0,
1756958126.9290729,0.09893178939819336,128,1290620,724500,13358064,428246.30627152673,149869.24925389315,0,
1756958126.9290729,0.09893178939819336,128,1309020,728145,13358096,451552.81386199157,150625.56192904318,0,
1756958126.9290729,0.09893178939819336,128,1313880,734245,13358128,469319.3151837676,151424.51869485437,0,
1756958126.955601,0.12545990943908691,128,1313720,732400,13358160,127319.61005105206,141782.05446415656,0,
1756958126.955601,0.12545990943908691,128,1293820,734420,13358192,121646.82963834584,141731.57599088427,0,
1756958126.955601,0.12545990943908691,128,1281015,736350,13358224,114159.10475783421,141662.45253861448,0,
1756958126.9571052,0.12696409225463867,128,1248685,738490,13358256,59419.10120427738,138666.56268633186,0,
1756958126.9571052,0.12696409225463867,128,1152660,745325,13358288,35551.50338863177,138408.05597435037,0,
1756958126.9572654,0.12712430953979492,128,839105,796205,13358320,-86293.59560861532,138199.048310369,0,
1756958126.9572654,0.12712430953979492,128,634790,824005,13358352,-189085.0614922027,138326.61819243158,0,
1756958126.9572654,0.12712430953979492,128,430130,838890,13358384,-312258.88058790384,138762.66174965387,0,
1756958126.9572654,0.12712430953979492,128,360425,829450,13358416,-421410.496404461,139471.25235594306,0,
1756958126.9572654,0.12712430953979492,128,198655,819660,13358448,-539508.9698323287,140474.13627724152,0,
1756958126.9572654,0.12712430953979492,128,172285,793230,13358480,-634698.016723719,141713.1424048344,0,
1756958126.9572654,0.12712430953979492,128,174690,758325,13358512,-705724.7124622774,143127.1044147299,0,
1756958126.9572654,0.12712430953979492,128,403810,731610,13358544,-708601.8920228832,144544.73467212022,0,
1756958126.9572654,0.12712430953979492,128,718395,706925,13358576,-640398.1223413931,145787.82593099444,0,
1756958126.9572654,0.12712430953979492,128,1199755,673860,13358608,-481350.9312846712,146629.07371398644,0,
1756958126.9572654,0.12712430953979492,128,1195710,698100,13358640,-358463.61333166156,147160.13727243894,0,
1756958126.9572654,0.12712430953979492,128,1238195,712660,13358672,-253623.1990704866,147427.03733767034,0,
1756958126.9582918,0.12815070152282715,128,1277550,722230,13358704,38117.33757295017,144678.18891615196,0,
1756958126.9582918,0.12815070152282715,128,1302515,725620,13358736,65331.25583739848,144479.26826464184,0,
1756958126.9582918,0.12815070152282715,128,1311255,729515,13358768,88007.22290607035,144337.69434843658,0,
1756958126.9582918,0.12815070152282715,128,1321645,732610,13358800,107486.55226295747,144245.30951504598,0,
1756958126.9582918,0.12815070152282715,128,1302515,734190,13358832,118025.42035819897,144179.57695007807,0,
1756958126.9582918,0.12815070152282715,128,1293975,736500,13358864,123957.44725308349,144128.8806086044,0,
1756958126.9582918,0.12815070152282715,128,1264675,737885,13358896,121807.27330734802,144072.92093259888,0,
1756958126.9582918,0.12815070152282715,128,1221060,740300,13358928,110324.29504093638,143988.31402481484,0,
1756958126.9582918,0.12815070152282715,128,985430,770790,13358960,49888.518637459885,143752.40833975398,0,
1756958126.9582918,0.12815070152282715,128,699135,815590,13358992,-59099.92953858209,143540.18682618442,0,
1756958126.9582918,0.12815070152282715,128,512040,830115,13359024,-183576.76558722422,143640.55746462458,0,
1756958126.9582918,0.12815070152282715,128,397900,833085,13359056,-303756.43805603776,144041.96372002136,0,
1756958126.9949152,0.16477417945861816,128,295060,826965,13359088,-149934.10068554842,146865.9958698305,0,
1756958126.9949152,0.16477417945861816,128,111960,810765,13359120,-189058.76570046213,146971.77202195217,0,
1756958126.9949152,0.16477417945861816,128,192920,769320,13359152,-201040.03733096042,147107.31972548616,0,
1756958126.9949152,0.16477417945861816,128,273780,744505,13359184,-192112.48788497158,147220.14648544072,0,
1756958126.9949152,0.16477417945861816,128,520205,718190,13359216,-131070.50141753585,147179.6597546508,0,
1756958126.9959154,0.16577434539794922,128,1029850,684015,13359248,355893.4941246982,152297.43590063445,0,
1756958126.9959154,0.16577434539794922,128,1214465,682800,13359280,432593.26117833686,153000.1300819517,0,
1756958126.9959154,0.16577434539794922,128,1218500,709205,13359312,491339.7350904038,153848.33847575518,0,
1756958126.9959154,0.16577434539794922,128,1260340,719365,13359344,544332.7829964353,154827.27259576117,0,
1756958126.9959154,0.16577434539794922,128,1292420,724240,13359376,590626.6717883113,155919.81010227153,0,
1756958126.9959154,0.16577434539794922,128,1309635,727390,13359408,628400.3196591098,157104.30617716836,0,
1756958126.9974196,0.16727852821350098,128,1314705,732695,13359440,641941.1360214422,174765.52395316254,0,
1756958126.9974196,0.16727852821350098,128,1311595,733480,13359472,640201.1717622712,175932.3587469703,0,
1756958126.9974196,0.16727852821350098,128,1302175,734115,13359504,635059.6908381061,177083.37876100198,0,
1756958126.9984238,0.16828274726867676,128,1279005,737875,13359536,555277.367638584,186393.55528005442,0,
1756958126.9984238,0.16828274726867676,128,1245655,738460,13359568,540381.9249171697,187280.9947107043,0,
1756958126.9984238,0.16828274726867676,128,1134325,746910,13359600,503200.73229578516,188072.99709298872,0,
1756958126.999424,0.1692829132080078,128,818270,796705,13359632,167973.94998318655,187580.1575830156,0,
1756958126.9999278,0.16978669166564941,128,625115,823840,13359664,-10129.281515457551,185361.48420510712,0,
1756958126.9999278,0.16978669166564941,128,424640,837345,13359696,-80960.83223004628,185099.7545464655,0,
1756958126.9999278,0.16978669166564941,128,354810,829615,13359728,-150473.8415009427,185012.9483031125,0,
1756958126.9999278,0.16978669166564941,128,185140,819115,13359760,-240515.2471941473,185152.09109070778,0,
1756958126.9999278,0.16978669166564941,128,181950,790090,13359792,-309874.9938188119,185464.7680916485,0,
1756958127.0009325,0.1707913875579834,128,180395,755840,13359824,-446302.9894872119,191888.91724756992,0,
1756958127.0009325,0.1707913875579834,128,421280,728155,13359856,-403099.5526552468,192418.41669475666,0,
1756958127.0009325,0.1707913875579834,128,760960,705940,13359888,-294791.0125553737,192675.0620706424,0,
1756958127.0009325,0.1707913875579834,128,1213910,671800,13359920,-111996.83992145496,192472.8039128297,0,
1756958127.0019317,0.17179059982299805,128,1197640,701200,13359952,310778.43315322587,195371.0236430103,0,
1756958127.0019317,0.17179059982299805,128,1241130,713590,13359984,351970.73810237704,195763.61496340373,0,
1756958127.0019317,0.17179059982299805,128,1278760,722125,13360016,390913.5469755139,196252.85065420828,0,
1756958127.0019317,0.17179059982299805,128,1303730,728255,13360048,425262.03461668466,196826.97058938467,0,
1756958127.0019317,0.17179059982299805,128,1312100,731340,13360080,452365.79783440364,197467.59963488617,0,
1756958127.002933,0.1727919578552246,128,1320340,730190,13360112,483332.3289530445,204485.30702727553,0,
1756958127.002933,0.1727919578552246,128,1300160,733310,13360144,479998.17016108654,205176.01044967,0,
1756958127.002933,0.1727919578552246,128,1291720,735890,13360176,474280.88123791805,205850.6492056332,0,
1756958127.002933,0.1727919578552246,128,1261765,737890,13360208,462060.9506010414,206492.96161897623,0,
1756958127.002933,0.1727919578552246,128,1214945,739515,13360240,441196.77340417344,207081.3578346924,0,
1756958127.0039322,0.17379117012023926,128,963215,776345,13360272,191243.18481855173,206693.35849924135,0,
1756958127.0039322,0.17379117012023926,128,686680,819280,13360304,111263.22543636718,206454.1176929997,0,
1756958127.0039322,0.17379117012023926,128,493270,831180,13360336,7279.435447037933,205954.79206037105,0,
1756958127.0049322,0.1747910976409912,128,391990,831960,13360368,-301134.6622700089,208288.11127112477,0,
1756958127.0049322,0.1747910976409912,128,286535,825000,13360400,-347013.56249627686,208635.8922888404,0,
1756958127.0049322,0.1747910976409912,128,115905,809170,13360432,-418530.3072348491,209162.0920063261,0,
1756958127.0049322,0.1747910976409912,128,191845,766250,13360464,-455915.4371645243,209780.696081829,0,
1756958127.0049322,0.1747910976409912,128,296515,743905,13360496,-460666.12446565676,210409.65918011253,0,
1756958127.0059319,0.17579078674316406,128,540705,716955,13360528,-273470.7727288788,211955.2326652019,0,
1756958127.0059319,0.17579078674316406,128,1063825,681555,13360560,-144430.41996010864,211785.94975513575,0,
1756958127.0059319,0.17579078674316406,128,1210600,686575,13360592,-12735.848164973868,211286.9364428988,0,
1756958127.0359838,0.2058427333831787,128,1220615,709385,13360624,95669.51355846022,161537.58544668075,0,
1756958127.0374868,0.20734572410583496,128,1262845,720240,13360656,112989.4276786751,159770.4655677121,0,
1756958127.0829494,0.2528083324432373,128,1293080,724250,13360688,22645.346257250247,86644.74939882968,0,
1756958127.0839493,0.25380825996398926,128,1309815,728525,13360720,31299.14177394127,85287.96072894018,0,
1756958127.0859494,0.25580835342407227,128,1314255,732335,13360752,31050.7236963261,82692.06261279742,0,
1756958127.0859494,0.25580835342407227,128,1309810,733630,13360784,29988.61035463691,82559.93645929353,0,
1756958127.0859494,0.25580835342407227,128,1300270,735530,13360816,27012.132660698713,82420.6795921049,0,
1756958127.0859494,0.25580835342407227,128,1276155,737185,13360848,19397.156526494673,82262.68129548225,0,
1756958127.100474,0.27033305168151855,128,1242115,738730,13360880,-13904.833728365895,63982.17432395144,0,
1756958127.100474,0.27033305168151855,128,1114165,750690,13360912,-41896.1541454339,63926.8052585987,0,
1756958127.1069794,0.2768383026123047,128,796285,800860,13360944,-241568.82730274886,88889.13863127367,0,
1756958127.1069794,0.2768383026123047,128,612855,824005,13360976,-283201.1781269434,89376.27374781783,0,
1756958127.1069794,0.2768383026123047,128,419800,838175,13361008,-356504.63898843364,90045.95745692552,0,
1756958127.1680908,0.3379497528076172,128,347060,828640,13361040,-80920.14782405307,84518.79756599653,1,0.6443318050848227
1756958127.1680908,0.3379497528076172,128,174735,816905,13361072,-117864.21858978561,84602.39364989745,0,
1756958127.1680908,0.3379497528076172,128,194180,787135,13361104,-141752.3066729259,84745.666962314,0,
1756958127.169091,0.33894991874694824,128,188370,756805,13361136,-189319.72198702782,87309.87937262017,0,
1756958127.169091,0.33894991874694824,128,439035,727590,13361168,-137897.37602090905,87436.70088167026,0,
1756958127.169091,0.33894991874694824,128,808870,701140,13361200,-17422.226551279455,87261.17645610591,0,
1756958127.169091,0.33894991874694824,128,1225030,670760,13361232,165971.6820096734,87458.50160073207,0,
1756958127.169091,0.33894991874694824,128,1199495,701330,13361264,301154.82446216256,87994.2326002746,0,
1756958127.169091,0.33894991874694824,128,1243515,714115,13361296,413991.5979192973,88811.49932733868,0,
1756958127.169091,0.33894991874694824,128,1281215,722740,13361328,507939.36857076903,89862.24175153805,0,
1756958127.1846108,0.35446977615356445,128,1304105,725780,13361360,297347.89088993776,148083.71337876184,0,
1756958127.1846108,0.35446977615356445,128,1311955,731600,13361392,297198.6254770769,148457.540498646,0,
1756958127.1856086,0.3554675579071045,128,1318940,730210,13361424,276987.84756251617,151601.84412990994,0,
1756958127.1856086,0.3554675579071045,128,1308450,733145,13361456,272387.12872160703,151904.64962687818,0,
1756958127.1856086,0.3554675579071045,128,1289655,737350,13361488,264008.5014147076,152185.69100263366,0,
1756958127.1856086,0.3554675579071045,128,1259485,738930,13361520,250267.99571955338,152431.58073269468,0,
1756958127.1856086,0.3554675579071045,128,1208055,739585,13361552,227808.95466317286,152620.54980496483,0,
1756958127.1856086,0.3554675579071045,128,940175,780335,13361584,151580.92849418367,152617.9435019807,0,
1756958127.1856086,0.3554675579071045,128,674795,820795,13361616,34708.66681440732,152322.3480803593,0,
1756958127.1871123,0.35697126388549805,128,476585,834895,13361648,-386178.967247768,160838.47310019523,0,
1756958127.1871123,0.35697126388549805,128,387465,833330,13361680,-426072.32130794635,161503.40730547396,0,
1756958127.1871123,0.35697126388549805,128,275105,823170,13361712,-480079.97931361914,162302.07030101566,0,
1756958127.1871123,0.35697126388549805,128,119660,806435,13361744,-554185.5329881697,163284.51172236717,0,
1756958127.1871123,0.35697126388549805,128,184715,766190,13361776,-595562.2157454232,164368.2204327243,0,
1756958127.1881156,0.3579745292663574,128,319045,741440,13361808,-554148.5621307265,173954.73523719344,0,
1756958127.1881156,0.3579745292663574,128,565590,716735,13361840,-495785.3798245157,174761.55610617012,0,
1756958127.1881156,0.3579745292663574,128,1096820,679835,13361872,-333854.1230871539,175160.39694155395,0,
1756958127.1881156,0.3579745292663574,128,1205915,689610,13361904,-184520.91473357196,175183.86351077614,0,
1756958127.1881156,0.3579745292663574,128,1224820,711470,13361936,-64928.53857687334,174907.45634269385,0,
1756958127.1891167,0.3589756488800049,128,1265110,719955,13361968,244503.83679157993,176615.58452421968,0,
1756958127.18962,0.3594789505004883,128,1295275,725220,13362000,313006.6093282112,178319.29146593882,0,
1756958127.18962,0.3594789505004883,128,1310675,729755,13362032,325981.6496840523,178689.4770718666,0,
1756958127.1916254,0.3614842891693115,128,1316530,733205,13362064,305339.48669974506,184766.32325414804,0,
1756958127.1916254,0.3614842891693115,128,1319245,730585,13362096,304302.7327867958,185065.99785454897,0,
1756958127.1916254,0.3614842891693115,128,1299425,736205,13362128,298357.5842944669,185350.0168494971,0,
1756958127.1926255,0.3624844551086426,128,1274495,739320,13362160,243587.63268124041,186778.03469988177,0,
1756958127.1926255,0.3624844551086426,128,1238900,737590,13362192,230956.72438906966,186888.78950028616,0,
1756958127.193625,0.36348390579223633,128,1092870,755295,13362224,86781.8927537603,184435.82664320248,0,
1756958127.1956246,0.36548352241516113,128,778295,806525,13362256,-176291.4969594629,184046.11190011096,0,
1756958127.1956246,0.36548352241516113,128,599370,825725,13362288,-224887.60044163297,184148.50042596943,0,
1756958127.1956246,0.36548352241516113,128,416890,838840,13362320,-301409.97977206635,184442.47183687973,0,
1756958127.2011378,0.37099671363830566,128,341285,828260,13362352,-377699.5419897523,207961.6299307228,0,
1756958127.2011378,0.37099671363830566,128,164080,816395,13362384,-416306.63007539324,208483.9453064982,0,
1756958127.202137,0.3719959259033203,128,207425,783085,13362416,-443161.70964739315,214233.01854345636,0,
1756958127.202137,0.3719959259033203,128,205375,756240,13362448,-444464.9034162062,214810.203757305,0,
1756958127.202137,0.3719959259033203,128,460135,724515,13362480,-388794.8892609549,215246.37873786563,0,
1756958127.202137,0.3719959259033203,128,855045,700785,13362512,-258904.64911897999,215355.82886090185,0,
1756958127.202137,0.3719959259033203,128,1232060,674510,13362544,-76122.73467554676,215006.77519578245,0,
1756958127.2031357,0.37299466133117676,128,1202150,702820,13362576,334685.57207238895,217937.2695580186,0,
1756958127.2031357,0.37299466133117676,128,1246230,716280,13362608,375033.95738443936,218331.10677742944,0,
1756958127.2096484,0.37950730323791504,128,1282480,722265,13362640,308281.0397922603,230983.25089532192,0,
1756958127.2096484,0.37950730323791504,128,1305415,729010,13362672,311641.212875222,231185.4582614289,0,
1756958127.2096484,0.37950730323791504,128,1310735,732080,13362704,314533.8113589707,231394.41036653426,0,
1756958127.2106514,0.3805103302001953,128,1318105,732815,13362736,300060.2581065688,233082.83204907074,0,
1756958127.211652,0.38151097297668457,128,1307180,736130,13362768,264776.68266747805,233860.34383788067,0,
1756958127.211652,0.38151097297668457,128,1287175,735655,13362800,256982.8351524179,233918.31130881316,0,
1756958127.2126515,0.3825104236602783,128,1257120,740335,13362832,197992.66869981727,233038.00965327525,0,
1756958127.2126515,0.3825104236602783,128,1199285,739825,13362864,180317.05293054422,232905.8396165441,0,
1756958127.2136536,0.3835124969482422,128,916870,781975,13362896,-61022.45490585617,228683.32595651626,0,
1756958127.2156534,0.3855123519897461,128,664405,820665,13362928,-279892.5672031186,231134.02020780763,0,
1756958127.2156534,0.3855123519897461,128,461040,835380,13362960,-331822.55184276623,231386.44367945642,0,
1756958127.2171571,0.38701605796813965,128,381485,829925,13362992,-468358.58308033017,240016.02351577126,0,
1756958127.2181613,0.38802027702331543,128,259680,824730,13363024,-530620.8348807485,247169.97670028274,0,
1756958127.2181613,0.38802027702331543,128,128330,803025,13363056,-562535.7368868731,247960.59027595856,0,
1756958127.2181613,0.38802027702331543,128,179205,763975,13363088,-574493.5919978294,248779.1998292428,0,
1756958127.2181613,0.38802027702331543,128,336455,739130,13363120,-547897.446038227,249529.0813193743,0,
1756958127.2181613,0.38802027702331543,128,589015,713715,13363152,-470943.5773719808,250084.16157389223,0,
1756958127.2191608,0.3890197277069092,128,1121710,677200,13363184,96026.24619001843,246309.2134278795,0,
1756958127.2191608,0.3890197277069092,128,1199715,689495,13363216,156419.34807164007,246083.8619254708,0,
1756958127.2191608,0.3890197277069092,128,1227465,713440,13363248,208529.13541903027,245989.7132246441,0,
1756958127.2191608,0.3890197277069092,128,1266900,718865,13363280,256662.6692111035,246016.47004152395,0,
1756958127.2201643,0.39002323150634766,128,1297150,726205,13363312,367051.59292187786,248993.9776985951,0,
1756958127.2201643,0.39002323150634766,128,1310150,729710,13363344,377346.64306213,249315.7544179528,0,
1756958127.2201643,0.39002323150634766,128,1310960,730255,13363376,384416.93418586324,249654.44948348918,0,
1756958127.2201643,0.39002323150634766,128,1317730,732760,13363408,390282.53309086256,250007.00034999885,0,
1756958127.2201643,0.39002323150634766,128,1296565,734680,13363440,389123.5498528588,250355.761840698,0,
1756958127.2211647,0.3910236358642578,128,1270490,736650,13363472,337215.12052164134,252486.0955685204,0,
1756958127.2211647,0.3910236358642578,128,1234635,738575,13363504,324492.72028220654,252666.61426212732,0,
1756958127.2211647,0.3910236358642578,128,1069630,759240,13363536,277890.8715575686,252729.85080449106,0,
1756958127.2211647,0.3910236358642578,128,758475,807630,13363568,173517.86308663132,252531.2684574127,0,
1756958127.2221642,0.39202308654785156,128,581945,824335,13363600,-198857.4693154144,251216.07599842298,0,
1756958127.2221642,0.39202308654785156,128,411870,836615,13363632,-264021.41359840304,251248.17863931102,0,
1756958127.2221642,0.39202308654785156,128,334280,828980,13363664,-330359.3815838965,251446.5083216425,0,
1756958127.2246702,0.3945291042327881,128,150590,815040,13363696,-539808.976724504,268532.3496236531,0,
1756958127.225675,0.39553403854370117,128,210440,778595,13363728,-475146.7348935594,273622.2050953224,0,
1756958127.225675,0.39553403854370117,128,217810,753325,13363760,-467288.694104491,274107.72183396114,0,
1756958127.225675,0.39553403854370117,128,474300,723750,13363792,-404126.37589392497,274433.6751426846,0,
1756958127.2271793,0.39703822135925293,128,899390,695100,13363824,89453.82790674228,267695.38884695614,0,
1756958127.2271793,0.39703822135925293,128,1235045,674140,13363856,187539.80596961326,267494.44093190174,0,
1756958127.2271793,0.39703822135925293,128,1205315,705775,13363888,256071.81807261994,267465.80472010426,0,
1756958127.2271793,0.39703822135925293,128,1248105,717390,13363920,317449.1734638183,267591.11169656046,0,
1756958127.2271793,0.39703822135925293,128,1282895,720795,13363952,371408.7469729731,267851.3797478401,0,
1756958127.2281835,0.3980424404144287,128,1306255,729335,13363984,481291.94529543625,273105.74496784824,0,
1756958127.2281835,0.3980424404144287,128,1311045,730310,13364016,489442.4883280125,273648.0954313762,0,
1756958127.236188,0.40604686737060547,128,1317090,730890,13364048,271040.56127291627,273211.384079474,0,
1756958127.2427008,0.41255974769592285,128,1304170,734005,13364080,143562.48854594753,254974.7044109517,0,
1756958127.2427008,0.41255974769592285,128,1284910,736825,13364112,137470.20134942082,254680.12374604846,0,
1756958127.2436998,0.4135587215423584,128,1254265,740095,13364144,91900.36663081961,250693.31689651986,0,
1756958127.2436998,0.4135587215423584,128,1189475,742365,13364176,74033.09593346152,250250.43441970105,0,
1756958127.2436998,0.4135587215423584,128,895325,787055,13364208,-3957.643532755814,249632.98494151072,0,
1756958127.2436998,0.4135587215423584,128,654640,822755,13364240,-116385.8091120265,249298.93781455272,0,
1756958127.2446988,0.41455769538879395,128,449050,837415,13364272,-502609.5939610908,255503.03024521476,0,
1756958127.2446988,0.41455769538879395,128,375640,832390,13364304,-546981.0555377364,256233.7579046509,0,
1756958127.2446988,0.41455769538879395,128,251120,821185,13364336,-606752.7334317826,257112.49965651316,0,
1756958127.2446988,0.41455769538879395,128,141700,803090,13364368,-674930.5493451159,258159.95839791477,0,
1756958127.2446988,0.41455769538879395,128,179460,761245,13364400,-717354.8621602657,259311.14781232952,0,
1756958127.245699,0.415557861328125,128,357250,738795,13364432,-639976.5042893189,268645.2683168967,0,
1756958127.245699,0.415557861328125,128,619855,713605,13364464,-575104.1852174074,269413.5526732742,0,
1756958127.245699,0.415557861328125,128,1148505,674580,13364496,-408506.1666107207,269762.25415814726,0,
1756958127.251209,0.4210679531097412,128,1196890,691365,13364528,102563.53181015205,249424.41418213077,0,
1756958127.2522082,0.42206716537475586,128,1229695,712900,13364560,137164.57374344108,246674.30257243535,0,
1756958127.2522082,0.42206716537475586,128,1268770,719720,13364592,147961.46058842426,246426.83210221078,0,
1756958127.2537117,0.4235706329345703,128,1297780,724290,13364624,174681.58077682045,243814.55546806936,0,
1756958127.2537117,0.4235706329345703,128,1306455,727805,13364656,177460.45607100704,243648.20750513888,0,
1756958127.254715,0.4245738983154297,128,1313930,733215,13364688,174131.666178942,241938.4718379271,0,
1756958127.254715,0.4245738983154297,128,1314550,733055,13364720,173534.84060415535,241766.98575317604,0,
1756958127.2557151,0.42557406425476074,128,1295690,735325,13364752,145458.35470732115,239405.4460109425,0,
1756958127.2582245,0.4280834197998047,128,1268765,738775,13364784,90337.27143354481,230561.90156698716,0,
1756958127.2582245,0.4280834197998047,128,1230965,738665,13364816,80170.4584655645,230184.87421781928,0,
1756958127.2582245,0.4280834197998047,128,1046430,763245,13364848,31953.120311517494,229687.9124814671,0,
1756958127.259225,0.42908382415771484,128,740505,811665,13364880,-283383.17906105093,231004.85563135936,0,
1756958127.259225,0.42908382415771484,128,564700,827985,13364912,-345146.20913886925,231291.0049697519,0,
1756958127.2602282,0.4300870895385742,128,408240,836465,13364944,-562728.7843609911,239442.60431684327,0,
1756958127.2602282,0.4300870895385742,128,326760,828875,13364976,-595623.6831358132,240335.54081111113,0,
1756958127.2602282,0.4300870895385742,128,138440,815580,13365008,-660314.7661590308,241388.41756242816,0,
1756958127.261229,0.4310879707336426,128,210930,775100,13365040,-708396.8722257396,252847.70585573715,0,
1756958127.261229,0.4310879707336426,128,234295,751990,13365072,-705071.4280484318,253981.41870331025,0,
1756958127.261229,0.4310879707336426,128,491475,721850,13365104,-644598.1144427971,254960.68437360544,0,
1756958127.261229,0.4310879707336426,128,942990,691495,13365136,-497987.9634024577,255569.9473003927,0,
1756958127.261229,0.4310879707336426,128,1235195,677380,13365168,-320141.1930303279,255731.82569658314,0,
1756958127.2622278,0.432086706161499,128,1208270,705430,13365200,101267.63411350438,251949.56472458923,0,
1756958127.2622278,0.432086706161499,128,1251550,717205,13365232,142897.56124443898,251676.17425139697,0,
1756958127.2622278,0.432086706161499,128,1286775,725060,13365264,182225.68679717358,251502.0637259356,0,
1756958127.2622278,0.432086706161499,128,1306625,727090,13365296,216327.15124317267,251413.88115559053,0,
1756958127.2622278,0.432086706161499,128,1310760,729870,13365328,242890.37732263585,251392.51295810874,0,
1756958127.2632275,0.4330863952636719,128,1318875,732055,13365360,289843.72753629985,252334.91905240607,0,
1756958127.2632275,0.4330863952636719,128,1304820,736480,13365392,289607.37166825763,252428.3601000943,0,
1756958127.2632275,0.4330863952636719,128,1282905,735105,13365424,283862.6017077939,252507.16490801453,0,
1756958127.2642276,0.43408656120300293,128,1253200,740075,13365456,227619.6306309463,251896.90910182917,0,
1756958127.2642276,0.43408656120300293,128,1178965,744290,13365488,206507.6532310509,251783.11944419472,0,
1756958127.2642276,0.43408656120300293,128,875490,790625,13365520,123626.49868105055,251461.83420343767,0,
1756958127.2642276,0.43408656120300293,128,647445,822985,13365552,9835.715641231422,250856.0839486855,0,
1756958127.2662299,0.43608880043029785,128,441075,838595,13365584,-405252.00525338366,258253.31672845717,0,
1756958127.2672303,0.437089204788208,128,369675,830555,13365616,-466796.83853138855,263368.10579623695,0,
1756958127.2672303,0.437089204788208,128,239675,822325,13365648,-498555.4467281088,263957.7142066675,0,
1756958127.267735,0.437593936920166,128,159765,800120,13365680,-587360.0261909569,268008.7812131884,0,
1756958127.267735,0.437593936920166,128,184430,760160,13365712,-593930.0885843653,268825.85726499953,0,
1756958127.2717457,0.4416046142578125,128,384705,733505,13365744,-302857.37640847155,271942.0963399316,0,
1756958127.2747548,0.4446136951446533,128,661165,713090,13365776,-32326.592389957514,255094.91839023007,0,
1756958127.2757494,0.44560837745666504,128,1176525,674080,13365808,329112.73178048705,256900.16702337927,0,
1756958127.2757494,0.44560837745666504,128,1196375,694925,13365840,360509.629074635,257159.91318991847,0,
1756958127.2772536,0.4471125602722168,128,1233575,714295,13365872,415051.4512382125,262911.4499272436,0,
1756958127.278258,0.4481170177459717,128,1272160,721660,13365904,414407.88732693647,266641.77150008496,0,
1756958127.278258,0.4481170177459717,128,1299425,725165,13365936,419160.130139189,267024.13096995425,0,
1756958127.2812636,0.451122522354126,128,1307705,728470,13365968,332641.3409298161,271632.5274539718,0,
1756958127.2822642,0.45212316513061523,128,1311475,731390,13366000,300980.92816864816,272352.50079558673,0,
1756958127.2822642,0.45212316513061523,128,1315300,730770,13366032,298554.2539232368,272418.1878940117,0,
1756958127.2822642,0.45212316513061523,128,1295470,735930,13366064,291552.5480144749,272466.15722607914,0,
1756958127.2822642,0.45212316513061523,128,1267685,738315,13366096,279315.9723165084,272483.32953038433,0,
1756958127.2862637,0.45612263679504395,128,1227725,738140,13366128,142584.7362625648,260618.81683557987,0,
1756958127.2862637,0.45612263679504395,128,1024245,763575,13366160,95267.99088839832,260204.28671136568,0,
1756958127.2862637,0.45612263679504395,128,725375,812175,13366192,-6481.5880981669325,259568.21065205598,0,
1756958127.2872643,0.4571232795715332,128,547560,828055,13366224,-358838.91242040956,262003.51401224482,0,
1756958127.287767,0.4576258659362793,128,405625,835185,13366256,-493444.1679110654,264890.4611444307,0,
1756958127.288771,0.458629846572876,128,322965,828095,13366288,-569043.4426651743,272376.20200424583,0,
1756958127.288771,0.458629846572876,128,136360,814640,13366320,-613905.3261280021,273232.40643766674,0,
1756958127.289775,0.45963382720947266,128,218440,773425,13366352,-613336.5030569492,281602.96759384545,0,
1756958127.2907755,0.4606344699859619,128,256685,750520,13366384,-537485.8372388727,287880.2719863883,0,
1756958127.2927756,0.4626345634460449,128,513335,719715,13366416,-253262.922420596,286223.41928812757,0,
1756958127.293777,0.4636359214782715,128,985775,690310,13366448,110752.12192074978,281915.76572196593,0,
1756958127.293777,0.4636359214782715,128,1233660,677155,13366480,192397.7457929606,281691.34642615647,0,
1756958127.293777,0.4636359214782715,128,1212855,708885,13366512,250201.81127575,281612.40299879486,0,
1756958127.294775,0.4646339416503906,128,1255170,718835,13366544,391502.5366869354,284301.3290385435,0,
1756958127.297279,0.46713781356811523,128,1288780,724025,13366576,365174.82134286436,289089.3257435479,0,
1756958127.297279,0.46713781356811523,128,1300835,726565,13366608,365990.5377463584,289282.11503734876,0,
1756958127.297279,0.46713781356811523,128,1311065,730375,13366640,367844.3096496207,289479.0683703885,0,
1756958127.297279,0.46713781356811523,128,1321105,732995,13366672,370450.8536947108,289682.06248327583,0,
1756958127.301789,0.4716479778289795,128,1304080,734220,13366704,241567.6643009492,284783.43432435626,0,
1756958127.3057883,0.4756472110748291,128,1282520,736455,13366736,147972.85577657557,272288.2803728907,0,
1756958127.3103058,0.4801647663116455,128,1251400,739640,13366768,74973.36220861491,252169.66918835128,0,
1756958127.315306,0.4851648807525635,128,1165525,744795,13366800,-4577.791643425386,224529.13551860326,0,
1756958127.3178089,0.4876677989959717,128,855415,795265,13366832,-214070.58925826006,223910.17447668227,0,
1756958127.3218172,0.49167609214782715,128,641015,823275,13366864,-297288.473236338,230625.73805790022,0,
1756958127.3228157,0.4926745891571045,128,434130,838715,13366896,-413371.5575036836,235099.47019728564,0,
1756958127.325326,0.49518489837646484,128,365365,830920,13366928,-399700.59547931846,244868.00568992997,0,
1756958127.3288379,0.49869680404663086,128,229305,820075,13366960,-373061.85844573483,255265.18927356633,0,
1756958127.331841,0.5016999244689941,128,180700,796980,13366992,-311445.09313207853,259207.87911234662,0,
1756958127.3338408,0.503699779510498,128,191515,758865,13367024,-246023.1998586332,258576.9067162395,0,
1756958127.335841,0.505699872970581,128,408700,733280,13367056,-48693.688741064194,248531.49363916638,0,
1756958127.3383503,0.508209228515625,128,704905,709740,13367088,182164.17985610198,244594.21936361855,0,
1756958127.3393493,0.5092082023620605,128,1200005,673660,13367120,513373.7159652325,251177.1751134887,0,
1756958127.3423557,0.5122146606445312,128,1196700,696365,13367152,461423.63074699324,265947.45976462326,0,
1756958127.3433535,0.5132124423980713,128,1237565,715150,13367184,446267.78676083754,270358.7295415106,0,
1756958127.3478587,0.5177175998687744,128,1275960,722210,13367216,316241.76077597635,275025.51915531285,0,
1756958127.3478587,0.5177175998687744,128,1290950,725340,13367248,316417.7132049755,275129.2882852378,0,
1756958127.3478587,0.5177175998687744,128,1308170,729095,13367280,319436.155543409,275240.36442339956,0,
1756958127.3478587,0.5177175998687744,128,1312865,733930,13367312,321908.27757242654,275357.359640833,0,
1756958127.3488653,0.5187242031097412,128,1314980,732000,13367344,302292.5329397687,276021.97068204643,0,
1756958127.3488653,0.5187242031097412,128,1295305,736415,13367376,295682.3314083487,276071.2586836472,0,
1756958127.3488653,0.5187242031097412,128,1266990,739325,13367408,283620.5063116921,276090.18444672733,0,
1756958127.3488653,0.5187242031097412,128,1224285,738355,13367440,264261.95665537304,276060.5313941496,0,
1756958127.3488653,0.5187242031097412,128,1003495,769965,13367472,200572.0954284576,275871.2838923101,0,
1756958127.3488653,0.5187242031097412,128,710920,815935,13367504,87299.05263787544,275398.53832241363,0,
1756958127.3488653,0.5187242031097412,128,527360,830590,13367536,-40107.47007388892,274808.6698703582,0,
1756958127.3488653,0.5187242031097412,128,401575,832850,13367568,-165470.12852335686,274534.5610543523,0,
1756958127.3488653,0.5187242031097412,128,314735,825900,13367600,-280438.52155853424,274549.36212635867,0,
1756958127.3488653,0.5187242031097412,128,129610,812410,13367632,-408485.02781120397,274885.1352790781,0,
1756958127.3488653,0.5187242031097412,128,214885,769980,13367664,-487388.04960105993,275417.8744351432,0,
1756958127.3488653,0.5187242031097412,128,275495,746580,13367696,-533608.6602320541,276065.1518702226,0,
1756958127.3498704,0.5197293758392334,128,526580,718730,13367728,-431800.2235580744,279902.50535834633,0,
1756958127.3498704,0.5197293758392334,128,1021510,684205,13367760,-315082.10096843226,279990.6996691671,0,
1756958127.3498704,0.5197293758392334,128,1228805,681170,13367792,-179233.33207646897,279738.1036276025,0,
1756958127.3498704,0.5197293758392334,128,1216625,707245,13367824,-76803.89553171351,279229.35296362836,0,
1756958127.3498704,0.5197293758392334,128,1259160,720025,13367856,11526.308426774849,278558.2285488049,0,
1756958127.3498704,0.5197293758392334,128,1277820,722760,13367888,83562.58770044084,278069.37966184545,0,
1756958127.3498704,0.5197293758392334,128,1301660,725860,13367920,143984.6582823506,277733.2328304627,0,
1756958127.3498704,0.5197293758392334,128,1309995,730810,13367952,191924.4038119161,277518.1123776438,0,
1756958127.3498704,0.5197293758392334,128,1323015,731210,13367984,231142.66969480587,277401.85037589277,0,
1756958127.3498704,0.5197293758392334,128,1303835,734780,13368016,256529.48211705545,277349.52390363347,0,
1756958127.3498704,0.5197293758392334,128,1281090,736165,13368048,270421.90525582654,277332.15654787864,0,
1756958127.3498704,0.5197293758392334,128,1249440,739845,13368080,273488.2583492312,277322.51999729825,0,
1756958127.3508685,0.5207273960113525,128,1150275,748355,13368112,193041.86423244321,275260.23794951814,0,
1756958127.3508685,0.5207273960113525,128,834970,795980,13368144,117670.6411891896,274865.16502051573,0,
1756958127.3508685,0.5207273960113525,128,633270,822045,13368176,15412.998257021289,274214.72533689137,0,
1756958127.3508685,0.5207273960113525,128,429765,839585,13368208,-107657.809089501,273797.1715763627,0,
1756958127.3538692,0.5237281322479248,128,358920,829745,13368240,-410064.88377356174,283353.3414158436,0,
1756958127.3538692,0.5237281322479248,128,210645,820640,13368272,-448979.3467321866,283768.5614074196,0,
1756958127.3548703,0.5247292518615723,128,192915,792895,13368304,-513880.017370316,289416.2669387559,0,
1756958127.3548703,0.5247292518615723,128,190745,759185,13368336,-517937.8106248929,289989.1643727252,0,
1756958127.3548703,0.5247292518615723,128,424295,730495,13368368,-468804.6935518978,290437.4501499353,0,
1756958127.3548703,0.5247292518615723,128,745255,707120,13368400,-359826.19885054405,290611.40589798294,0,
1756958127.3548703,0.5247292518615723,128,1215940,672205,13368432,-172477.67172466448,290315.24776741274,0,
1756958127.3548703,0.5247292518615723,128,1198395,700735,13368464,-31584.71290539601,289666.61719577824,0,
1756958127.3558695,0.5257284641265869,128,1240520,714435,13368496,325639.76791178767,290547.877841035,0,
1756958127.3558695,0.5257284641265869,128,1259780,718085,13368528,356466.1423088399,290713.1331773861,0,
1756958127.3558695,0.5257284641265869,128,1292830,724845,13368560,386418.8809679439,290953.06494242186,0,
1756958127.3558695,0.5257284641265869,128,1310265,729585,13368592,412217.9115403135,291257.07268858876,0,
1756958127.3558695,0.5257284641265869,128,1312480,733370,13368624,431435.2405180889,291608.4956282059,0,
1756958127.3558695,0.5257284641265869,128,1312820,732620,13368656,445124.5600604818,291993.35631997115,0,
1756958127.3573778,0.5272367000579834,128,1293490,735790,13368688,407480.9384298634,296211.1600421218,0,
1756958127.3623927,0.5322515964508057,128,1264150,738090,13368720,238466.12883323687,289747.7253892964,0,
1756958127.3643913,0.5342502593994141,128,1218920,738250,13368752,158983.6144929712,283493.3666244082,0,
1756958127.3678918,0.5377507209777832,128,981255,773910,13368784,-43912.43811028966,264120.3154595393,0,
1756958127.3718987,0.5417575836181641,128,696385,816690,13368816,-217029.59904168206,259811.9822215136,0,
1756958127.3728993,0.5427582263946533,128,508000,830015,13368848,-332788.8980085901,261602.24787962483,0,
1756958127.3739014,0.5437602996826172,128,397470,834855,13368880,-404697.21487304644,265117.5408430952,0,
1756958127.3739014,0.5437602996826172,128,303745,825930,13368912,-429517.51275877905,265529.6872015343,0,
1756958127.3749008,0.5447597503662109,128,126185,811035,13368944,-568238.6789324137,272947.0973636056,0,
1756958127.3749008,0.5447597503662109,128,204595,769700,13368976,-560301.6210537901,273667.4875141625,0,
1756958127.3758996,0.5457584857940674,128,290955,745675,13369008,-439079.12510065176,277717.8112477411,0,
1756958127.3758996,0.5457584857940674,128,535445,719855,13369040,-375311.348479743,277962.475650713,0,
1756958127.3784094,0.5482683181762695,128,1048055,685170,13369072,195410.05182371882,273064.1361657886,0,
1756958127.3784094,0.5482683181762695,128,1219210,682935,13369104,249640.61236575188,273005.41401441896,0,
1756958127.3784094,0.5482683181762695,128,1219700,710295,13369136,290816.72324122745,273050.06649307406,0,
1756958127.3784094,0.5482683181762695,128,1240895,714185,13369168,326336.693902512,273183.6546511764,0,
1756958127.3794093,0.5492682456970215,128,1279415,723265,13369200,407148.0231850764,276467.76960077835,0,
1756958127.3794093,0.5492682456970215,128,1303385,727465,13369232,417474.3305406598,276821.2692998975,0,
1756958127.381415,0.5512738227844238,128,1313505,731160,13369264,377704.709856539,281662.3470215159,0,
1756958127.382413,0.552271842956543,128,1321815,731830,13369296,347477.77607553627,283272.7993438583,0,
1756958127.382413,0.552271842956543,128,1301975,735360,13369328,339876.5680780842,283414.70348706405,0,
1756958127.382413,0.552271842956543,128,1278015,736205,13369360,327878.8884083904,283526.1740164245,0,
1756958127.382413,0.552271842956543,128,1245160,739155,13369392,310592.8554201415,283594.0294670404,0,
1756958127.382413,0.552271842956543,128,1129935,748730,13369424,271351.8441302319,283563.3386339027,0,
1756958127.382413,0.552271842956543,128,813105,799350,13369456,171428.4993763895,283282.2195733847,0,
1756958127.3834128,0.5532717704772949,128,622300,823960,13369488,-199848.21210075024,281236.8482985838,0,
1756958127.3834128,0.5532717704772949,128,423570,838465,13369520,-271148.9500989454,281211.5582060197,0,
1756958127.3834128,0.5532717704772949,128,353720,831110,13369552,-340507.2800693233,281360.2110041449,0,
1756958127.3834128,0.5532717704772949,128,193125,819335,13369584,-427934.2641802404,281727.6682582688,0,
1756958127.3864133,0.5562722682952881,128,196720,790090,13369616,-521648.19419860415,298551.5502061735,0,
1756958127.3864133,0.5562722682952881,128,192220,757915,13369648,-523605.42817963264,299115.7542944012,0,
1756958127.3864133,0.5562722682952881,128,436145,729535,13369680,-470581.09263945115,299545.613338621,0,
1756958127.3864133,0.5562722682952881,128,782555,706550,13369712,-353061.7817948179,299679.7769500244,0,
1756958127.387414,0.5572729110717773,128,1225205,671650,13369744,239391.46985225845,298200.7875378423,0,
1756958127.387414,0.5572729110717773,128,1199460,702095,13369776,278716.2318563938,298151.9402748146,0,
1756958127.387414,0.5572729110717773,128,1221495,711065,13369808,313026.79782618757,298189.2311471953,0,
1756958127.3879173,0.5577762126922607,128,1262960,720885,13369840,392023.36199943343,299361.34537049476,0,
1756958127.3879173,0.5577762126922607,128,1294250,725365,13369872,409846.5136208954,299638.3287496603,0,
1756958127.3889213,0.5587801933288574,128,1311150,729810,13369904,428382.83214288414,302806.9578543582,0,
1756958127.3889213,0.5587801933288574,128,1315270,733510,13369936,429529.3090422239,303124.64741942514,0,
1756958127.3889213,0.5587801933288574,128,1310240,732640,13369968,428142.04588409746,303438.0627133472,0,
1756958127.3889213,0.5587801933288574,128,1292065,736915,13370000,421946.36694950657,303735.15988110565,0,
1756958127.3889213,0.5587801933288574,128,1262335,739750,13370032,409550.2627990924,304000.435530653,0,
1756958127.3889213,0.5587801933288574,128,1214605,740250,13370064,388495.99896599236,304212.2636615726,0,
1756958127.3899276,0.5597865581512451,128,958345,776825,13370096,138977.09120406533,300136.11572822725,0,
1756958127.3899276,0.5597865581512451,128,684400,820360,13370128,59874.047352317095,299533.78511102404,0,
1756958127.394926,0.5647850036621094,128,489690,832685,13370160,-233868.09357776277,292205.2064495964,0,
1756958127.3954315,0.5652904510498047,128,392090,834095,13370192,-291140.0012649869,292191.8445909933,0,
1756958127.3954315,0.5652904510498047,128,288295,825255,13370224,-321661.96419395343,292265.72539727075,0,
1756958127.3954315,0.5652904510498047,128,123560,809095,13370256,-380141.43199997785,292486.0274572379,0,
1756958127.3954315,0.5652904510498047,128,196035,767445,13370288,-408348.3995541541,292776.4913434747,0,
1756958127.3964374,0.5662963390350342,128,306890,744355,13370320,-367158.37824274227,294610.55278240703,0,
1756958127.3964374,0.5662963390350342,128,552270,717470,13370352,-309585.7164418325,294648.0951195336,0,
1756958127.3964374,0.5662963390350342,128,1077840,679875,13370384,-150004.5354836322,294285.477561386,0,
1756958127.3964374,0.5662963390350342,128,1211640,687785,13370416,2394.331795542501,293553.71421990753,0,
1756958127.3964374,0.5662963390350342,128,1223010,711700,13370448,122195.40377455924,293124.1234917866,0,
1756958127.3974352,0.5672941207885742,128,1243435,714765,13370480,403514.71560892684,295824.665858645,0,
1756958127.3974352,0.5672941207885742,128,1281810,724340,13370512,432471.61470249156,296167.236126155,0,
1756958127.3979373,0.5677962303161621,128,1304415,725630,13370544,486409.52655427135,298538.0592216131,0,
1756958127.3979373,0.5677962303161621,128,1313735,731460,13370576,495378.2854856195,299031.5324351647,0,
1756958127.3979373,0.5677962303161621,128,1321285,732055,13370608,502571.7810590572,299541.8024266288,0,
1756958127.3979373,0.5677962303161621,128,1300845,735345,13370640,502285.80415685446,300050.07624830154,0,
1756958127.3979373,0.5677962303161621,128,1277265,738815,13370672,495558.59983666457,300540.21091865335,0,
1756958127.3989418,0.568800687789917,128,1242710,739540,13370704,416164.8493818603,303387.2553153037,0,
1756958127.3989418,0.568800687789917,128,1111105,751980,13370736,380292.51667602453,303580.05476073717,0,
1756958127.3989418,0.568800687789917,128,793585,802085,13370768,282514.5203517453,303527.2440260754,0,
1756958127.403946,0.5738048553466797,128,611895,825880,13370800,-121832.28129890718,283228.6705888208,0,
1756958127.4084551,0.5783140659332275,128,420050,836285,13370832,-211435.86504792736,275920.6821742883,0,
1756958127.4084551,0.5783140659332275,128,348345,829750,13370864,-227996.4989840463,275800.53752126393,0,
1756958127.4084551,0.5783140659332275,128,179335,817570,13370896,-276913.90777724935,275803.3287108928,0,
1756958127.4094546,0.5793135166168213,128,208265,785445,13370928,-348637.9245913328,277588.02651106333,0,
1756958127.4094546,0.5793135166168213,128,200055,756365,13370960,-354996.5147088043,277782.0875327972,0,
1756958127.4094546,0.5793135166168213,128,452880,726785,13370992,-303884.63494362123,277847.5259251278,0,
1756958127.410459,0.5803179740905762,128,826440,701180,13371024,85331.25502048078,273107.16627836,0,
1756958127.410459,0.5803179740905762,128,1233535,670215,13371056,203549.34818086718,272932.78667782975,0,
1756958127.410459,0.5803179740905762,128,1202830,703570,13371088,287325.12430536863,272968.8678855909,0,
1756958127.410459,0.5803179740905762,128,1225450,710215,13371120,355962.51233443164,273176.93074554513,0,
1756958127.4114597,0.5813186168670654,128,1266485,721800,13371152,512843.32229747204,279056.4133952468,0,
1756958127.4114597,0.5813186168670654,128,1296645,724260,13371184,530076.3829067622,279685.71378456015,0,
1756958127.4114597,0.5813186168670654,128,1311590,727960,13371216,545147.4653893952,280351.21933759574,0,
1756958127.41246,0.5823190212249756,128,1316950,733875,13371248,538669.8503415551,286686.80482325493,0,
1756958127.41246,0.5823190212249756,128,1310750,734270,13371280,535348.1496271675,287310.1922031387,0,
1756958127.41246,0.5823190212249756,128,1290995,735685,13371312,527025.9323378494,287911.1531899673,0,
1756958127.4134583,0.5833172798156738,128,1261645,739385,13371344,445082.7226027023,291757.9154196337,0,
1756958127.4134583,0.5833172798156738,128,1209020,741490,13371376,426089.65504537063,292094.68151919194,0,
1756958127.4134583,0.5833172798156738,128,937590,780805,13371408,351214.9141845173,292242.89437056385,0,
1756958127.4144583,0.5843172073364258,128,675015,821950,13371440,-23848.164889442793,285663.2407422913,0,
1756958127.4164593,0.5863182544708252,128,475130,833375,13371472,-245590.78406899632,283744.42544784065,0,
1756958127.4174588,0.587317705154419,128,388195,834370,13371504,-308115.6161595917,284341.6033400911,0,
1756958127.4174588,0.587317705154419,128,280715,824015,13371536,-335486.037516525,284469.8210767161,0,
1756958127.4179614,0.587820291519165,128,130795,808065,13371568,-460000.34461099346,286659.35577164445,0,
1756958127.4189658,0.5888247489929199,128,194825,765515,13371600,-437363.79343892925,290370.1758054517,0,
1756958127.4189658,0.5888247489929199,128,332890,742495,13371632,-404377.59303584165,290655.98936915863,0,
1756958127.4189658,0.5888247489929199,128,581270,716815,13371664,-323806.5193004593,290739.09686627256,0,
1756958127.4189658,0.5888247489929199,128,1115050,679465,13371696,-144692.66505158137,290372.96234487306,0,
1756958127.4199693,0.5898282527923584,128,1209120,688825,13371728,345002.8703034733,291716.8777752115,0,
1756958127.4199693,0.5898282527923584,128,1205280,704305,13371760,380793.42864162754,291940.1903198191,0,
1756958127.4199693,0.5898282527923584,128,1248735,716600,13371792,416766.5817208581,292253.1267641112,0,
1756958127.4209695,0.5908284187316895,128,1285475,723135,13371824,489999.0852788451,297101.9646598162,0,
1756958127.4209695,0.5908284187316895,128,1307050,728990,13371856,498992.5126120104,297608.09889555944,0,
1756958127.4209695,0.5908284187316895,128,1311075,730860,13371888,505427.7730203155,298129.0972929706,0,
1756958127.4209695,0.5908284187316895,128,1323580,731095,13371920,511721.8574190394,298664.56866348913,0,
1756958127.4209695,0.5908284187316895,128,1302185,737445,13371952,510510.5003750574,299195.66078161815,0,
1756958127.4209695,0.5908284187316895,128,1277165,739275,13371984,502734.8763114297,299705.92818314285,0,
1756958127.4219694,0.5918283462524414,128,1241805,740395,13372016,420026.2526737659,302655.56158734625,0,
1756958127.4219694,0.5918283462524414,128,1091570,756805,13372048,379805.0790668878,302848.9733763752,0,
1756958127.4219694,0.5918283462524414,128,776655,806390,13372080,279247.2951459614,302789.8045965855,0,
1756958127.4219694,0.5918283462524414,128,599270,825545,13372112,162449.43424042355,302437.97501954675,0,
1756958127.4219694,0.5918283462524414,128,419420,838410,13372144,32931.17653179413,301762.3286415275,0,
1756958127.4219694,0.5918283462524414,128,342625,827880,13372176,-83592.71084324768,301215.38321051665,0,
1756958127.4229696,0.5928285121917725,128,172625,816260,13372208,-458728.6548678862,305077.6938560807,0,
1756958127.4229696,0.5928285121917725,128,227080,781405,13372240,-474496.82771303906,305502.42312005436,0,
1756958127.4229696,0.5928285121917725,128,224300,755060,13372272,-485943.9837576278,305954.7853148969,0,
1756958127.4229696,0.5928285121917725,128,481535,725160,13372304,-437431.6118007933,306284.3942231215,0,
1756958127.4229696,0.5928285121917725,128,883085,699715,13372336,-311473.59412481624,306297.4034093019,0,
1756958127.4254801,0.5953390598297119,128,1243520,674640,13372368,290993.0826469023,305389.0611575654,0,
1756958127.4254801,0.5953390598297119,128,1207110,689955,13372400,300746.8617257758,305377.42328701913,0,
1756958127.4254801,0.5953390598297119,128,1229845,713210,13372432,312382.71606905863,305394.9853697633,0,
1756958127.4254801,0.5953390598297119,128,1269935,719990,13372464,329213.6866482395,305454.69822056417,0,
1756958127.4269853,0.5968441963195801,128,1298890,724920,13372496,347064.1388134697,306971.3369838351,0,
1756958127.4269853,0.5968441963195801,128,1312550,730120,13372528,350001.40380688576,307079.2122172543,0,
1756958127.4269853,0.5968441963195801,128,1320170,732620,13372560,352964.144899024,307194.24452347454,0,
1756958127.4269853,0.5968441963195801,128,1310205,734235,13372592,352110.39942302706,307306.8481295532,0,
1756958127.4289918,0.5988507270812988,128,1290920,737775,13372624,276686.53737035,305836.81095630705,0,
1756958127.4289918,0.5988507270812988,128,1260075,737800,13372656,266321.1464845219,305737.74623613973,0,
1756958127.429997,0.599855899810791,128,1200785,739735,13372688,181210.97504091696,302669.37355276267,0,
1756958127.429997,0.599855899810791,128,917975,785280,13372720,112632.74071407075,302192.95676703076,0,
1756958127.429997,0.599855899810791,128,665745,821165,13372752,4619.191589462731,301446.94724977954,0,
1756958127.429997,0.599855899810791,128,461475,835860,13372784,-123020.11520184732,300999.6359259425,0,
1756958127.4309962,0.6008551120758057,128,383510,831360,13372816,-460265.0663714537,304901.2779341596,0,
1756958127.4319975,0.6018564701080322,128,275475,824065,13372848,-571515.7746954132,311446.4104144847,0,
1756958127.4319975,0.6018564701080322,128,147370,806865,13372880,-606392.5848015376,312185.8326314878,0,
1756958127.4329948,0.6028537750244141,128,196800,763790,13372912,-605031.6012756692,319346.53074962314,0,
1756958127.4339957,0.6038546562194824,128,358820,738020,13372944,-448427.186311551,322513.8662237525,0,
1756958127.4349947,0.604853630065918,128,613855,715300,13372976,-207835.2792147244,319705.15472126385,0,
1756958127.4349947,0.604853630065918,128,1146070,676325,13373008,-72869.0566607269,319086.34318643506,0,
1756958127.4349947,0.604853630065918,128,1244410,674615,13373040,52648.52270765211,318418.39065468474,0,
1756958127.438503,0.6083619594573975,128,1207825,706060,13373072,294830.88446245366,316507.11235137266,0,
1756958127.438503,0.6083619594573975,128,1251740,717175,13373104,308898.7221330701,316488.0383193913,0,
1756958127.438503,0.6083619594573975,128,1287895,723955,13373136,326755.025914462,316513.77738430805,0,
1756958127.438503,0.6083619594573975,128,1308675,728985,13373168,344132.32820700854,316583.0163568839,0,
1756958127.440505,0.6103639602661133,128,1312590,734000,13373200,329735.649798338,317213.09816305316,0,
1756958127.4415028,0.6113617420196533,128,1321645,730860,13373232,306884.2501016373,316960.41819046007,0,
1756958127.4420066,0.6118655204772949,128,1300660,735825,13373264,280078.6431347139,316499.2843022563,0,
1756958127.4420066,0.6118655204772949,128,1274120,738745,13373296,269438.5233123567,316381.30422573106,0,
1756958127.4430113,0.6128702163696289,128,1237650,739980,13373328,198434.55376631542,313476.40971543436,0,
1756958127.4430113,0.6128702163696289,128,1067845,758485,13373360,155486.60456155695,313080.33347463026,0,
1756958127.4485207,0.6183795928955078,128,758360,810585,13373392,-160471.20846113906,294519.2701473723,0,
1756958127.4485207,0.6183795928955078,128,582010,826385,13373424,-202836.3730167022,294289.4235619792,0,
1756958127.4485207,0.6183795928955078,128,415800,838340,13373456,-271080.10733441706,294231.2384232983,0,
1756958127.4495199,0.6193788051605225,128,335730,827845,13373488,-459663.58525839075,298283.9559033202,0,
1756958127.4495199,0.6193788051605225,128,153325,816540,13373520,-512643.6260767014,298821.3498969364,0,
1756958127.4495199,0.6193788051605225,128,225365,778730,13373552,-536348.7927405913,299416.8248806399,0,
1756958127.4495199,0.6193788051605225,128,232225,752875,13373584,-551638.9909954645,300049.13914487313,0,
1756958127.4495199,0.6193788051605225,128,489700,723230,13373616,-505853.439573616,300565.08505401417,0,
1756958127.4515243,0.6213831901550293,128,919200,696410,13373648,-17763.326341438573,287002.00119776645,0,
1756958127.4515243,0.6213831901550293,128,1150970,677700,13373680,51486.21714459821,286411.56938916363,0,
1756958127.4515243,0.6213831901550293,128,1202720,693585,13373712,115926.11018097094,285984.16687588644,0,
1756958127.4515243,0.6213831901550293,128,1232550,714570,13373744,171715.09461279557,285697.69734996953,0,
1756958127.4515243,0.6213831901550293,128,1272055,722105,13373776,222797.20128130287,285540.0074787571,0,
1756958127.4525242,0.6223831176757812,128,1299825,726995,13373808,341211.8399507793,286904.7934983085,0,
1756958127.4525242,0.6223831176757812,128,1312390,731235,13373840,352131.12048305984,287068.31416578713,0,
1756958127.4525242,0.6223831176757812,128,1320735,734870,13373872,361391.24545685103,287254.63977839635,0,
1756958127.4525242,0.6223831176757812,128,1307925,734375,13373904,364743.51561842306,287448.902329812,0,
1756958127.4525242,0.6223831176757812,128,1288155,737965,13373936,362023.043178068,287635.8577181018,0,
1756958127.4525242,0.6223831176757812,128,1257095,739805,13373968,352176.91502027045,287797.6604327065,0,
1756958127.4525242,0.6223831176757812,128,1190815,744005,13374000,329204.77179503435,287901.46695993765,0,
1756958127.4525242,0.6223831176757812,128,894710,789515,13374032,246160.1686103501,287796.822634815,0,
1756958127.4525242,0.6223831176757812,128,656260,824245,13374064,129643.33756120791,287400.33605280414,0,
1756958127.4525242,0.6223831176757812,128,449655,837880,13374096,-5392.9828751946625,286693.3511165488,0,
1756958127.4525242,0.6223831176757812,128,376430,831200,13374128,-125283.27752123249,286288.70035370195,0,
1756958127.4535246,0.6233835220336914,128,249215,823070,13374160,-476725.476926903,290959.3989901251,0,
1756958127.4545238,0.624382734298706,128,148720,802335,13374192,-584918.2787578133,298160.7251710909,0,
1756958127.4555228,0.6253817081451416,128,181070,763690,13374224,-540639.3166546429,304099.5183387595,0,
1756958127.457027,0.6268858909606934,128,365475,737075,13374256,-334814.13117614447,305218.36375815683,0,
1756958127.4580328,0.6278917789459229,128,628710,713585,13374288,-102326.35962426939,300215.5812722326,0,
1756958127.4590318,0.6288907527923584,128,929190,693740,13374320,156902.4524882985,296705.5516863136,0,
1756958127.4600368,0.6298956871032715,128,1237515,675320,13374352,406653.5884467943,299414.07372737856,0,
1756958127.4610367,0.6308956146240234,128,1209225,706000,13374384,412238.16283075407,302179.9381266561,0,
1756958127.4620364,0.6318953037261963,128,1252690,718470,13374416,408073.0813142962,304775.287703492,0,
1756958127.4620364,0.6318953037261963,128,1287745,723590,13374448,414266.97885817866,305049.78046199365,0,
1756958127.463037,0.6328959465026855,128,1309035,729315,13374480,408428.7506744313,307585.8676362204,0,
1756958127.4640377,0.6338965892791748,128,1311795,733705,13374512,375178.63538370817,309244.04967268906,0,
1756958127.4650352,0.6348941326141357,128,1318610,733490,13374544,341086.8267084373,310022.8544740439,0,
1756958127.4660347,0.6358935832977295,128,1296720,734145,13374576,290679.75780611497,309548.8821583547,0,
1756958127.4670346,0.6368935108184814,128,1271125,739010,13374608,238207.13794577855,307799.950772619,0,
1756958127.4675372,0.6373960971832275,128,1232260,739070,13374640,198198.03136715878,306432.79707002017,0,
1756958127.4685416,0.6384005546569824,128,1043350,762070,13374672,39223.72055795067,299853.26424614125,0,
1756958127.4695408,0.6393997669219971,128,739140,810440,13374704,-200356.001814305,297415.8068662143,0,
1756958127.470544,0.6404030323028564,128,562230,826545,13374736,-355604.92812081525,298846.9484931527,0,
1756958127.4715438,0.6414027214050293,128,408485,835455,13374768,-463096.41370070004,302872.5611739148,0,
1756958127.4725435,0.6424024105072021,128,325510,827695,13374800,-504325.90671765915,307810.00886288047,0,
1756958127.4745502,0.6444091796875,128,130120,815850,13374832,-560540.5432005167,319944.61156228575,0,
1756958127.4755476,0.6454064846038818,128,210900,774105,13374864,-467965.040896248,323564.02397409745,0,
1756958127.4755476,0.6454064846038818,128,235260,753100,13374896,-454235.41337100364,323891.61367295537,0,
1756958127.4770522,0.6469111442565918,128,492520,720150,13374928,-187511.2076636012,318922.1484055183,1,0.8635982745841296
1756958127.4770522,0.6469111442565918,128,644910,712410,13374960,-140177.459690356,318474.0402234679,0,
1756958127.4780571,0.6479160785675049,128,1166620,675390,13374992,324021.1919145614,318610.6918915026,0,
1756958127.4790573,0.6489162445068359,128,1196590,694030,13375024,424179.5577617282,321199.2976019955,0,
1756958127.480064,0.6499228477478027,128,1234135,714095,13375056,436862.3412236024,324053.22153996816,0,
1756958127.4810622,0.650921106338501,128,1272565,721895,13375088,429044.4202040174,326622.8731568434,0,
1756958127.482061,0.6519198417663574,128,1300800,727370,13375120,410421.98695348453,328674.8058044839,0,
1756958127.4830613,0.6529202461242676,128,1311485,730140,13375152,379244.0133785943,329915.0784719358,0,
1756958127.4830613,0.6529202461242676,128,1320190,730920,13375184,377702.10128018,330034.8792675294,0,
1756958127.4840608,0.6539196968078613,128,1305205,734365,13375216,333161.5967739917,330111.4945873247,0,
1756958127.4850607,0.6549196243286133,128,1284570,738465,13375248,281803.27807204926,328927.2264286891,0,
1756958127.4860606,0.6559195518493652,128,1253455,739225,13375280,226224.8856831701,326409.4950625601,0,
1756958127.4870613,0.6569201946258545,128,1177230,745115,13375312,144624.3496112727,321949.95193791314,0,
1756958127.4875638,0.6574227809906006,128,872140,791835,13375344,-44776.98953674236,318492.548601707,0,
1756958127.488568,0.6584270000457764,128,647320,823670,13375376,-276223.70278607483,317451.9968547898,0,
1756958127.488568,0.6584270000457764,128,438905,836350,13375408,-338581.289152244,317504.96742878266,0,
1756958127.4900727,0.6599316596984863,128,369880,830795,13375440,-492165.3289058687,323869.28782755637,0,
1756958127.4910803,0.6609392166137695,128,233520,823185,13375472,-564530.6378954877,329812.96534147253,0,
1756958127.492077,0.6619360446929932,128,160865,799725,13375504,-582464.9195496944,335987.95811926416,0,
1756958127.4930773,0.6629362106323242,128,181280,761345,13375536,-525199.0791296513,340627.517181482,0,
1756958127.4940774,0.6639363765716553,128,385155,735570,13375568,-334790.4900200978,340484.39011728833,0,
1756958127.4940774,0.6639363765716553,128,665440,711640,13375600,-258203.5333798295,340278.11419717455,0,
1756958127.4960773,0.6659362316131592,128,970130,691335,13375632,176705.8606528,332450.1212085347,0,
1756958127.4960773,0.6659362316131592,128,1233690,679110,13375664,250338.76215806822,332244.2702146155,0,
1756958127.4975793,0.667438268661499,128,1212075,707585,13375696,380767.94064690435,334009.4188357406,0,
1756958127.4985836,0.6684424877166748,128,1254815,720080,13375728,397448.0439099834,335571.116839773,0,
1756958127.499583,0.6694419384002686,128,1288225,722555,13375760,390470.75778551673,336916.34663396113,0,
1756958127.501586,0.6714448928833008,128,1308615,729455,13375792,335905.0685423411,336867.8790085841,0,
1756958127.504587,0.6744458675384521,128,1311965,734175,13375824,249534.7910682752,330742.9396050982,0,
1756958127.5161078,0.6859667301177979,128,1315915,732320,13375856,103871.2625673885,279802.033844159,0,
1756958127.5161078,0.6859667301177979,128,1295500,735755,13375888,98169.65058117145,279346.6862886567,0,
1756958127.517611,0.6874699592590332,128,1267880,739260,13375920,53005.13692562616,271106.7487225521,0,
1756958127.517611,0.6874699592590332,128,1226995,736510,13375952,41646.89978610168,270531.49898226844,0,
1756958127.517611,0.6874699592590332,128,1020325,767065,13375984,-12200.803437857554,269883.870797172,0,
1756958127.518615,0.6884739398956299,128,722210,813955,13376016,-332003.93544735305,271412.75505745836,0,
1756958127.5196152,0.6894741058349609,128,542735,830145,13376048,-496339.50994662393,276928.08078677417,0,
1756958127.5196152,0.6894741058349609,128,404940,836035,13376080,-537627.8798986513,277581.6482515232,0,
1756958127.5226178,0.692476749420166,128,319955,829375,13376112,-555914.44459584,297112.081671303,0,
1756958127.5226178,0.692476749420166,128,132410,813935,13376144,-595688.4070595619,297860.6045803458,0,
1756958127.5226178,0.692476749420166,128,214415,774095,13376176,-606829.7532574198,298635.1820210438,0,
1756958127.5226178,0.692476749420166,128,258965,751220,13376208,-604049.6515441063,299400.84797561634,0,
1756958127.523621,0.6934800148010254,128,514550,720040,13376240,-379780.12561862264,301377.7489443528,0,
1756958127.5262277,0.6960866451263428,128,689870,710695,13376272,-128546.77561415476,290751.4353233749,0,
1756958127.5262277,0.6960866451263428,128,1191560,674455,13376304,-11564.068866423593,290051.520018849,0,
1756958127.5271292,0.6969881057739258,128,1196915,698195,13376336,259654.88970132035,289378.10557358136,0,
1756958127.5271292,0.6969881057739258,128,1236105,715190,13376368,290639.4977126986,289381.26785013557,0,
1756958127.5271292,0.6969881057739258,128,1274170,722130,13376400,321985.8226407442,289463.00660208846,0,
1756958127.5276325,0.6974914073944092,128,1300335,725665,13376432,386427.3737669078,290674.2216778276,0,
1756958127.5276325,0.6974914073944092,128,1311810,732800,13376464,397725.9076547252,290942.5974082247,0,
1756958127.5276325,0.6974914073944092,128,1320275,730225,13376496,407179.41845664545,291234.00002802693,0,
1756958127.5276325,0.6974914073944092,128,1304025,737325,13376528,409806.48554311926,291531.2580965452,0,
1756958127.5276325,0.6974914073944092,128,1281370,737105,13376560,405776.3836500937,291817.667588698,0,
1756958127.530642,0.7005009651184082,128,1250725,740155,13376592,276984.1170327512,290774.5786474733,0,
1756958127.530642,0.7005009651184082,128,1162410,747445,13376624,253706.7848155847,290681.65067391493,0,
1756958127.530642,0.7005009651184082,128,851185,795600,13376656,167342.3393125478,290372.44229974295,0,
1756958127.5316408,0.7014997005462646,128,638395,822665,13376688,-186474.96737173965,287828.3745745217,0,
1756958127.5316408,0.7014997005462646,128,432715,839135,13376720,-258013.41320506306,287753.62925910443,0,
1756958127.5316408,0.7014997005462646,128,364255,831955,13376752,-327288.1053273109,287852.7411394438,0,
1756958127.5316408,0.7014997005462646,128,225845,820940,13376784,-409857.5090293983,288158.60384861653,0,
1756958127.5316408,0.7014997005462646,128,183935,795745,13376816,-481430.06623984245,288643.1302660273,0,
1756958127.5326421,0.7025010585784912,128,191280,760945,13376848,-603001.1291978458,296360.32034478395,0,
1756958127.5326421,0.7025010585784912,128,411000,734505,13376880,-562868.9100587928,297028.45029312535,0,
1756958127.5326421,0.7025010585784912,128,524315,721370,13376912,-505764.19652715407,297551.74525895744,0,
1756958127.533641,0.7035000324249268,128,1013940,687575,13376944,-10309.727929738001,290516.6048799858,0,
1756958127.533641,0.7035000324249268,128,1230190,681655,13376976,74977.35644227025,289976.2537150242,0,
1756958127.533641,0.7035000324249268,128,1215120,709485,13377008,137154.6283153826,289593.1339634497,0,
1756958127.533641,0.7035000324249268,128,1257270,718455,13377040,193825.4230914234,289353.0468586162,0,
1756958127.533641,0.7035000324249268,128,1290935,725530,13377072,244254.67401078233,289239.9864369861,0,
1756958127.5421524,0.7120113372802734,128,1309025,729520,13377104,214193.55670471318,276015.5039428201,0,
1756958127.546151,0.7160098552703857,128,1311955,732595,13377136,149410.05214204674,264454.2815969132,0,
1756958127.547654,0.717512845993042,128,1314080,734330,13377168,127740.54524379161,259477.99470272966,0,
1756958127.547654,0.717512845993042,128,1293630,735655,13377200,121829.42808888796,259132.91340610178,0,
1756958127.547654,0.717512845993042,128,1266525,740925,13377232,111044.80735540194,258761.66046167773,0,
1756958127.5486581,0.7185170650482178,128,1222855,739190,13377264,48118.56800697354,253576.16193196108,0,
1756958127.5486581,0.7185170650482178,128,997760,770355,13377296,-5837.29878881832,252955.08718907338,0,
1756958127.5486581,0.7185170650482178,128,707060,816155,13377328,-110643.30184721493,252598.3153270825,0,
1756958127.5486581,0.7185170650482178,128,522650,831050,13377360,-231174.57283509063,252544.6065742809,0,
1756958127.549662,0.7195210456848145,128,400060,833635,13377392,-572445.716186763,260417.93661810635,0,
1756958127.549662,0.7195210456848145,128,314670,828775,13377424,-615638.367361257,261308.46479319036,0,
1756958127.549662,0.7195210456848145,128,132070,813385,13377456,-686957.8236003439,262375.5564183292,0,
1756958127.551661,0.721519947052002,128,216485,770595,13377488,-683745.4026125001,282531.67959954677,0,
1756958127.551661,0.721519947052002,128,283875,747100,13377520,-667081.4637645765,283495.73568383505,0,
1756958127.5526607,0.7225196361541748,128,424050,729375,13377552,-481425.2337647508,288346.8169117988,0,
1756958127.5526607,0.7225196361541748,128,735475,708925,13377584,-398017.4439437961,288621.75825778727,0,
1756958127.5541642,0.7240231037139893,128,1213490,673020,13377616,179537.93167487672,284649.96742729883,0,
1756958127.5541642,0.7240231037139893,128,1197910,698715,13377648,205231.05244109852,284450.8663190606,0,
1756958127.5541642,0.7240231037139893,128,1240105,716480,13377680,233636.11503676302,284323.47508868546,0,
1756958127.5541642,0.7240231037139893,128,1277205,721010,13377712,262942.30416000675,284269.87306166114,0,
1756958127.5551672,0.7250261306762695,128,1303505,727365,13377744,326501.6191504929,285308.30771490705,0,
1756958127.5551672,0.7250261306762695,128,1312515,731975,13377776,332448.50516439596,285426.48693652434,0,
1756958127.5551672,0.7250261306762695,128,1323090,733160,13377808,338419.6426364832,285559.339368854,0,
1756958127.5551672,0.7250261306762695,128,1302670,734615,13377840,337645.9612205773,285689.91914492956,0,
1756958127.5561676,0.7260265350341797,128,1280965,738935,13377872,293747.15157798305,285887.5327845615,0,
1756958127.5561676,0.7260265350341797,128,1247955,740475,13377904,282379.38807525486,285878.7379590517,0,
1756958127.5561676,0.7260265350341797,128,1144900,748880,13377936,250421.2862914966,285789.8470704826,0,
1756958127.55717,0.7270288467407227,128,829175,797790,13377968,-51756.346125877055,280039.2098053375,0,
1756958127.55717,0.7270288467407227,128,630540,823425,13378000,-118065.81450650908,279633.1468099578,0,
1756958127.55717,0.7270288467407227,128,426910,839545,13378032,-213122.0459747339,279466.4052485963,0,
1756958127.5576751,0.7275340557098389,128,359070,831135,13378064,-429108.66437867266,281342.6328543873,0,
1756958127.5576751,0.7275340557098389,128,203025,820980,13378096,-494818.4339745338,281877.81101178774,0,
1756958127.5576751,0.7275340557098389,128,191450,791645,13378128,-546574.7911970501,282541.39930320863,0,
1756958127.5576751,0.7275340557098389,128,187605,759475,13378160,-585764.0688831779,283301.5704736006,0,
1756958127.5576751,0.7275340557098389,128,284985,747030,13378192,-593135.5003592527,284078.3158977952,0,
1756958127.5576751,0.7275340557098389,128,533960,716935,13378224,-542990.0673318151,284727.40077455743,0,
1756958127.558679,0.7285380363464355,128,1041770,686670,13378256,-48094.14850528707,278903.4394362655,0,
1756958127.558679,0.7285380363464355,128,1222600,681925,13378288,29352.626220373437,278277.8221827225,0,
1756958127.558679,0.7285380363464355,128,1219430,709865,13378320,88208.87240076164,277801.3243792731,0,
1756958127.558679,0.7285380363464355,128,1261645,719610,13378352,142470.83664761705,277462.0544447686,0,
1756958127.558679,0.7285380363464355,128,1293140,723315,13378384,190713.6227273643,277244.5784329663,0,
1756958127.561682,0.7315409183502197,128,1310820,731085,13378416,266278.2301053086,276475.0200065439,0,
1756958127.561682,0.7315409183502197,128,1313090,733710,13378448,267981.3571551478,276453.72661960946,0,
1756958127.561682,0.7315409183502197,128,1312540,732570,13378480,268439.8082210261,276433.6359392625,0,
1756958127.561682,0.7315409183502197,128,1293540,736905,13378512,263922.4299288095,276402.2706784489,0,
1756958127.5626822,0.7325410842895508,128,1264525,739745,13378544,212625.93414703355,274838.44039971416,0,
1756958127.5626822,0.7325410842895508,128,1219565,741315,13378576,198308.47761321583,274646.5818178276,0,
1756958127.564682,0.7345409393310547,128,975815,775465,13378608,-35443.493641598005,263199.16297673085,0,
1756958127.5656822,0.7355411052703857,128,693680,818005,13378640,-244808.64174079063,262748.2174456041,0,
1756958127.5656822,0.7355411052703857,128,503450,832655,13378672,-301665.6779213327,262845.7824842587,0,
1756958127.5671844,0.7370433807373047,128,396025,833910,13378704,-472956.36021312297,270490.1572957257,0,
1756958127.5671844,0.7370433807373047,128,294420,826410,13378736,-502559.00865833886,271071.9477357222,0,
1756958127.5681887,0.7380475997924805,128,115505,810480,13378768,-647153.6558525981,280330.1252613524,0,
1756958127.5681887,0.7380475997924805,128,193795,767095,13378800,-639426.4080530315,281230.3700944689,0,
1756958127.5691876,0.739046573638916,128,181965,758135,13378832,-576586.1716940453,288464.2335289231,0,
1756958127.5701904,0.7400493621826172,128,421820,730525,13378864,-356804.52073903824,290144.260403024,0,
1756958127.5701904,0.7400493621826172,128,758630,706600,13378896,-265635.85965163383,290082.8184939826,0,
1756958127.5711904,0.7410492897033691,128,1211565,671690,13378928,265113.1295837926,289470.6905861344,0,
1756958127.5711904,0.7410492897033691,128,1197995,701740,13378960,302299.4728479625,289502.8520021663,0,
1756958127.574261,0.7441198825836182,128,1241810,715820,13378992,340273.7916441521,293140.26048911683,0,
1756958127.574261,0.7441198825836182,128,1278750,721790,13379024,348336.41110382037,293278.6357711234,0,
1756958127.574261,0.7441198825836182,128,1303345,725775,13379056,358944.9472020747,293443.2594679101,0,
1756958127.574261,0.7441198825836182,128,1311555,732920,13379088,367917.80187068525,293629.96516554523,0,
1756958127.57626,0.7461190223693848,128,1321545,729700,13379120,333486.31298003445,295536.7003026137,0,
1756958127.577259,0.7471179962158203,128,1301310,734720,13379152,288742.43814725464,295370.2950236127,0,
1756958127.5777612,0.7476201057434082,128,1276685,735165,13379184,256354.26860437507,294884.07244755153,0,
1756958127.5777612,0.7476201057434082,128,1244025,737725,13379216,243577.20040317377,294755.4474835106,0,
1756958127.5787654,0.748624324798584,128,1125425,750175,13379248,115836.36256314453,290350.9135347303,0,
1756958127.581768,0.7516269683837891,128,808110,802050,13379280,-147883.75602638302,280354.08466379845,0,
1756958127.5837693,0.7536282539367676,128,619500,823330,13379312,-271797.15205011994,279944.3010581861,0,
1756958127.5837693,0.7536282539367676,128,421485,836540,13379344,-318925.6114895826,280042.0261669819,0,
1756958127.584768,0.754626989364624,128,350430,829605,13379376,-448650.9679824208,284170.64014295785,0,
1756958127.584768,0.754626989364624,128,163305,819315,13379408,-498158.2964801612,284707.101507778,0,
1756958127.584768,0.754626989364624,128,177900,788910,13379440,-531734.3642999171,285326.3922875061,0,
1756958127.584768,0.754626989364624,128,176690,766735,13379472,-556393.5548295011,286005.9504567215,0,
1756958127.584768,0.754626989364624,128,280675,744995,13379504,-551220.7420671232,286670.8368876173,0,
1756958127.5857682,0.7556271553039551,128,526755,718620,13379536,-332250.7917639628,287788.48204278987,0,
1756958127.5857682,0.7556271553039551,128,1052305,682300,13379568,-200081.60935822586,287568.6032449665,0,
1756958127.5857682,0.7556271553039551,128,1202535,684975,13379600,-65073.80088987475,287010.814691272,0,
1756958127.5857682,0.7556271553039551,128,1222010,712320,13379632,43286.71996518325,286399.80486605904,0,
1756958127.5857682,0.7556271553039551,128,1262415,719440,13379664,135391.11181393196,286021.2300876765,0,
1756958127.5857682,0.7556271553039551,128,1293315,723115,13379696,212658.7887000808,285837.31239771727,0,
1756958127.5872717,0.7571306228637695,128,1310625,731490,13379728,383166.5487570474,289381.11334988324,0,
1756958127.588277,0.7581360340118408,128,1314680,732565,13379760,380378.34736410924,291623.8280633108,0,
1756958127.588277,0.7581360340118408,128,1309125,733320,13379792,377915.0656204694,291840.1579015095,0,
1756958127.588277,0.7581360340118408,128,1290590,735620,13379824,370949.98528359307,292038.48413534235,0,
1756958127.588277,0.7581360340118408,128,1260765,738015,13379856,358080.33692632685,292204.0493043336,0,
1756958127.589275,0.7591338157653809,128,1211925,741265,13379888,266723.277963588,291580.6999660775,0,
1756958127.5912795,0.7611384391784668,128,952690,778660,13379920,23097.829256417113,278702.88733940956,0,
1756958127.5922787,0.7621376514434814,128,680470,819235,13379952,-185636.10728465323,276422.96220050525,0,
1756958127.593279,0.7631378173828125,128,484650,833620,13379984,-347323.69619713107,278161.48655983125,0,
1756958127.5942776,0.764136552810669,128,389460,831975,13380016,-418694.8756982798,281602.63332370436,0,
1756958127.5952775,0.7651364803314209,128,268605,826995,13380048,-480066.62595079653,286467.94618470874,0,
1756958127.5962777,0.766136646270752,128,103530,809250,13380080,-563049.7897392352,293249.88263673085,0,
1756958127.5972779,0.767136812210083,128,187010,785600,13380112,-481079.38169993664,297855.5635812599,0,
1756958127.5977807,0.7676396369934082,128,180390,756580,13380144,-451944.20864626474,299778.5367423372,0,
1756958127.5987844,0.7686433792114258,128,432010,727620,13380176,-235836.41255810548,298205.17290874984,0,
1756958127.599784,0.7696428298950195,128,796650,703540,13380208,72847.81216964993,292683.143423977,0,
1756958127.6002867,0.7701456546783447,128,1216925,672285,13380240,362689.3318192736,293556.7965172123,0,
1756958127.6012907,0.7711496353149414,128,1200145,704955,13380272,455494.08688709466,297542.35860241216,0,
1756958127.6022894,0.7721483707427979,128,1243395,714730,13380304,467813.7830822367,301711.68067541486,0,
1756958127.6022894,0.7721483707427979,128,1281155,723135,13380336,475703.5686166697,302147.8737122951,0,
1756958127.6032896,0.7731485366821289,128,1304010,727575,13380368,469777.9266690589,306258.2533091313,0,
1756958127.6052916,0.7751505374908447,128,1311200,733070,13380400,392985.1455476408,310412.9373994562,0,
1756958127.6052916,0.7751505374908447,128,1320540,730830,13380432,390990.1097082455,310614.9422280058,0,
1756958127.6062913,0.7761502265930176,128,1299700,735380,13380464,340451.24640512094,311346.204301162,0,
1756958127.6077971,0.777656078338623,128,1275335,738400,13380496,267815.4174605132,309758.80713144626,0,
1756958127.6088014,0.7786602973937988,128,1240310,737985,13380528,211419.3930401502,307337.9402459429,0,
1756958127.609805,0.7796640396118164,128,1104555,755170,13380560,91726.76913227217,302032.59853145335,0,
1756958127.609805,0.7796640396118164,128,788085,804305,13380592,13404.150831549952,301309.0146872758,0,
1756958127.6108043,0.780663251876831,128,606970,825610,13380624,-288313.73201282666,300990.6597206678,0,
1756958127.611804,0.7816629409790039,128,417630,836290,13380656,-458878.1203454385,304860.3451581288,0,
1756958127.6128042,0.782663106918335,128,343490,828630,13380688,-509286.50818322034,309872.98528283596,0,
1756958127.6138055,0.7836644649505615,128,156545,817260,13380720,-601630.953093713,317035.3660787407,0,
1756958127.6148043,0.784663200378418,128,194055,783830,13380752,-548876.5203820847,322712.3047959703,0,
1756958127.6148043,0.784663200378418,128,177215,764245,13380784,-546974.1523896909,323274.52328509494,0,
1756958127.6158042,0.7856631278991699,128,305655,741235,13380816,-413165.4137346563,325478.18400763796,0,
1756958127.6173074,0.7871663570404053,128,552735,716120,13380848,-159556.5977462392,319437.82811403164,0,
1756958127.6173074,0.7871663570404053,128,1086525,679120,13380880,-29932.883682273867,318712.0469158521,0,
1756958127.6193106,0.7891695499420166,128,1200850,686610,13380912,364104.0763006528,320887.8017550554,0,
1756958127.6203136,0.7901725769042969,128,1224065,710930,13380944,394891.18059603043,322707.46776848775,0,
1756958127.6294172,0.7992761135101318,128,1264935,719555,13380976,215289.35701113442,302706.66486383404,0,
1756958127.6324203,0.8022792339324951,128,1295085,724830,13381008,177568.9651309851,293924.53632143553,0,
1756958127.6354206,0.8052794933319092,128,1309995,728980,13381040,140878.13812125087,283193.29823330947,0,
1756958127.6354206,0.8052794933319092,128,1314505,732675,13381072,140532.99195517923,282835.652638598,0,
1756958127.636423,0.8062820434570312,128,1308085,733320,13381104,123893.33462163893,278929.23887137393,0,
1756958127.6374233,0.8072822093963623,128,1288730,735885,13381136,97119.49460782665,274471.16557159607,0,
1756958127.6374233,0.8072822093963623,128,1258990,740270,13381168,88318.87445339742,274004.4867272785,0,
1756958127.637929,0.8077878952026367,128,1204870,740800,13381200,38048.578789658604,271043.293865483,0,
1756958127.637929,0.8077878952026367,128,930125,781320,13381232,-29517.082048676668,270437.7940742852,0,
1756958127.6389353,0.8087942600250244,128,669405,819955,13381264,-355297.75554321625,272531.1846727929,0,
1756958127.6419406,0.8117995262145996,128,468735,834770,13381296,-472835.98018369824,286597.8576164804,0,
1756958127.6419406,0.8117995262145996,128,384725,832100,13381328,-492841.42681132123,287114.90476073854,0,
1756958127.6419406,0.8117995262145996,128,258545,823765,13381360,-534363.0629072909,287734.7493192469,0,
1756958127.6429427,0.8128015995025635,128,113525,807305,13381392,-681793.8601455437,297415.26603191905,0,
1756958127.6429427,0.8128015995025635,128,194850,782130,13381424,-673552.8212683717,298358.2328819522,0,
1756958127.6439416,0.813800573348999,128,192220,754125,13381456,-600672.5502367773,305762.52449965983,0,
1756958127.6464424,0.8163013458251953,128,447770,727195,13381488,-287287.48477978905,304670.010712177,0,
1756958127.6464424,0.8163013458251953,128,843885,699840,13381520,-190625.1118817231,304384.1031830953,0,
1756958127.6464424,0.8163013458251953,128,1226355,672980,13381552,-32424.780857973878,303702.3083930248,0,
1756958127.6464424,0.8163013458251953,128,1202140,703630,13381584,84191.7794388477,303152.0013333989,0,
1756958127.6474447,0.8173036575317383,128,1246605,715855,13381616,377186.5611492839,304971.16780686297,0,
1756958127.6474447,0.8173036575317383,128,1282685,723335,13381648,406514.61462087574,305225.73452813475,0,
1756958127.6474447,0.8173036575317383,128,1305025,728330,13381680,432845.4716556588,305545.67381589225,0,
1756958127.6474447,0.8173036575317383,128,1309550,732090,13381712,452918.682174121,305915.1340294147,0,
1756958127.6474447,0.8173036575317383,128,1319245,730430,13381744,469244.62635232054,306324.5967239771,0,
1756958127.6474447,0.8173036575317383,128,1298255,735185,13381776,475961.2006811927,306749.87117970997,0,
1756958127.648449,0.8183078765869141,128,1273030,738790,13381808,435553.9526607787,309920.7008867663,0,
1756958127.6504521,0.8203110694885254,128,1236630,737465,13381840,326727.1484779555,310726.2764508452,0,
1756958127.6504521,0.8203110694885254,128,1082285,758255,13381872,288052.10943443014,310669.43291700777,0,
1756958127.6504521,0.8203110694885254,128,768900,806465,13381904,189268.75119950576,310365.08463580767,0,
1756958127.6504521,0.8203110694885254,128,592145,825210,13381936,74220.3075497047,309773.07595839526,0,
1756958127.6504521,0.8203110694885254,128,413960,836930,13381968,-53347.26826476323,309130.2232764926,0,
1756958127.6504521,0.8203110694885254,128,335565,828475,13382000,-168481.59788164645,308777.62091226794,0,
1756958127.6504521,0.8203110694885254,128,142775,817740,13382032,-298630.6770464969,308752.1827937888,0,
1756958127.6504521,0.8203110694885254,128,118715,805095,13382064,-403253.6097805733,308989.09535859065,0,
1756958127.6504521,0.8203110694885254,128,173090,764450,13382096,-470863.50870027253,309394.91020883556,0,
1756958127.6504521,0.8203110694885254,128,328430,739530,13382128,-487813.369813468,309842.2005431798,0,
1756958127.6504521,0.8203110694885254,128,578985,715825,13382160,-444986.57813743077,310181.00390451826,0,
1756958127.6504521,0.8203110694885254,128,1111140,678565,13382192,-294954.45693754544,310142.83135612356,0,
1756958127.6504521,0.8203110694885254,128,1196485,690950,13382224,-160058.88053746507,309766.5748819328,0,
1756958127.6504521,0.8203110694885254,128,1227505,711900,13382256,-49011.75773746963,309112.8694884389,0,
1756958127.6504521,0.8203110694885254,128,1267165,719715,13382288,45251.368686581874,308451.37572161807,0,
1756958127.6504521,0.8203110694885254,128,1296965,726760,13382320,124188.18926952186,307989.4328124699,0,
1756958127.6596653,0.8295242786407471,128,1310290,729125,13382352,190566.00087835174,285911.8063135176,0,
1756958127.6646686,0.8345274925231934,128,1317695,733870,13382384,127567.7167200523,268224.93728120526,0,
1756958127.6681757,0.8380346298217773,128,1305850,733030,13382416,81842.90515974346,253127.25405493795,0,
1756958127.6681757,0.8380346298217773,128,1286545,735345,13382448,76412.83402053064,252684.23570248834,0,
1756958127.6681757,0.8380346298217773,128,1256310,739390,13382480,65441.45540393915,252214.82303079014,0,
1756958127.6691754,0.8390343189239502,128,1195650,740540,13382512,-5224.225659614036,246161.29658825332,0,
1756958127.6691754,0.8390343189239502,128,908415,784605,13382544,-73179.04657183409,245727.6346868059,0,
1756958127.6701794,0.8400382995605469,128,659410,821855,13382576,-388445.0416001677,249240.16157047005,0,
1756958127.6701794,0.8400382995605469,128,456260,835785,13382608,-455781.4415967675,249757.95506786698,0,
1756958127.6701794,0.8400382995605469,128,379010,832685,13382640,-523193.4172387797,250443.4505012825,0,
1756958127.6711786,0.8410375118255615,128,244495,825075,13382672,-724799.9704281009,262064.1099239897,0,
1756958127.6711786,0.8410375118255615,128,134710,816870,13382704,-762249.8625553987,263318.06230663275,0,
1756958127.6741905,0.8440494537353516,128,199835,777335,13382736,-618661.2100900864,288324.04298522155,0,
1756958127.6741905,0.8440494537353516,128,205095,753895,13382768,-612153.4553353391,289135.8747118353,0,
1756958127.675188,0.8450469970703125,128,463025,724220,13382800,-377506.9418392534,291297.23806599306,0,
1756958127.6776824,0.847541332244873,128,887295,694750,13382832,39775.694970094424,276459.6442478357,0,
1756958127.6776824,0.847541332244873,128,1228910,674985,13382864,126911.34619606037,276084.73064088926,0,
1756958127.6776824,0.847541332244873,128,1205400,706565,13382896,188532.50744668744,275865.23954522633,0,
1756958127.6776824,0.847541332244873,128,1249240,717610,13382928,245002.493523292,275787.8674615444,0,
1756958127.678688,0.8485469818115234,128,1284245,721775,13382960,378837.42071241554,278328.21064131026,0,
1756958127.678688,0.8485469818115234,128,1305935,729170,13382992,392768.82198252843,278615.11021113506,0,
1756958127.678688,0.8485469818115234,128,1309050,731800,13383024,403098.33243531635,278927.1863394252,0,
1756958127.678688,0.8485469818115234,128,1318125,730655,13383056,411923.87964195176,279260.60551334807,0,
1756958127.678688,0.8485469818115234,128,1297440,736230,13383088,413089.06199743337,279596.10989545175,0,
1756958127.6796923,0.8495512008666992,128,1270825,738205,13383120,364086.00714239606,281676.03681279963,0,
1756958127.6796923,0.8495512008666992,128,1233440,738935,13383152,351194.96400573,281850.31891486625,0,
1756958127.6796923,0.8495512008666992,128,1059470,761070,13383184,302438.68325762387,281901.9333968592,0,
1756958127.6796923,0.8495512008666992,128,750645,809465,13383216,196847.02423118497,281688.7030010659,0,
1756958127.6796923,0.8495512008666992,128,575010,825480,13383248,76779.91774955073,281175.0021246637,0,
1756958127.6796923,0.8495512008666992,128,410990,837015,13383280,-51575.03753702479,280599.401118168,0,
1756958127.6796923,0.8495512008666992,128,327890,828520,13383312,-168344.63130422987,280317.98139493377,0,
1756958127.6891987,0.8590576648712158,128,238200,822055,13383344,-300829.3819289911,284273.5570237859,0,
1756958127.693202,0.8630609512329102,128,131065,804600,13383376,-276821.43084415206,283592.3143305663,0,
1756958127.693202,0.8630609512329102,128,170665,762610,13383408,-266982.12750078057,283550.6730338245,0,
1756958127.693202,0.8630609512329102,128,349020,736950,13383440,-219851.20961902488,283390.98017271864,0,
1756958127.693202,0.8630609512329102,128,610300,714220,13383472,-126086.69149639714,282996.6225034969,0,
1756958127.6942031,0.8640620708465576,128,1139670,676100,13383504,449455.53952478745,287082.08162358945,0,
1756958127.6952019,0.8650608062744141,128,1195460,693700,13383536,582460.7972285103,294314.82195350144,0,
1756958127.6952019,0.8650608062744141,128,1229905,712865,13383568,598618.7352544065,295077.7037731531,0,
1756958127.6962736,0.8661324977874756,128,1269345,721440,13383600,609200.5550145735,303316.55040531175,0,
1756958127.6972032,0.8670620918273926,128,1296920,724505,13383632,583192.4712146427,309706.0803564707,0,
1756958127.6972032,0.8670620918273926,128,1310760,731635,13383664,582455.8744940485,310389.8568383576,0,
1756958127.697706,0.8675649166107178,128,1318475,733600,13383696,564955.3265393027,313566.74612676323,0,
1756958127.7007127,0.8705716133117676,128,1305045,734395,13383728,409622.4917002845,320315.3750489757,0,
1756958127.7028208,0.8726797103881836,128,1284165,737040,13383760,309654.48470423865,319778.9576102513,0,
1756958127.7028208,0.8726797103881836,128,1254040,738940,13383792,298598.68989349436,319725.8592422376,0,
1756958127.7028208,0.8726797103881836,128,1185005,742635,13383824,274242.06011747156,319611.83256717917,0,
1756958127.70382,0.8736789226531982,128,886910,789370,13383856,-484.66122632310726,311793.94029649603,0,
1756958127.70382,0.8736789226531982,128,652080,822055,13383888,-72770.3783865555,311194.7145820729,0,
1756958127.70382,0.8736789226531982,128,444310,838385,13383920,-173452.8728293733,310849.399447152,0,
1756958127.70382,0.8736789226531982,128,372770,832420,13383952,-266067.4799388694,310737.1323656301,0,
1756958127.70382,0.8736789226531982,128,324470,827415,13383984,-347158.2309953462,310828.43909151136,0,
1756958127.7048206,0.8746795654296875,128,126130,817350,13384016,-636916.1859781106,318828.0056460263,0,
1756958127.7048206,0.8746795654296875,128,205735,774815,13384048,-640139.3125748833,319633.5245493016,0,
1756958127.7048206,0.8746795654296875,128,222210,752105,13384080,-637283.3359127338,320429.8641805482,0,
1756958127.7048206,0.8746795654296875,128,480030,721035,13384112,-577217.5840500689,321073.6241666531,0,
1756958127.7073252,0.8771841526031494,128,928925,693160,13384144,-15361.039220449049,302969.49411303014,0,
1756958127.7073252,0.8771841526031494,128,1229500,675940,13384176,67383.08158832368,302378.8852407271,0,
1756958127.7073252,0.8771841526031494,128,1208200,706085,13384208,126267.10972788648,301937.37770206964,0,
1756958127.7328613,0.9027202129364014,128,1251825,718145,13384240,90342.11599569344,219222.85440868128,0,
1756958127.737365,0.9072239398956299,128,1286360,722830,13384272,80222.01313464699,205089.03123460498,0,
1756958127.737365,0.9072239398956299,128,1306680,728735,13384304,84252.92869756973,204786.09833839897,0,
1756958127.738369,0.9082279205322266,128,1309395,733775,13384336,88417.24334977458,201922.05574955838,0,
1756958127.7393682,0.9092271327972412,128,1316790,731860,13384368,86947.32792145669,199105.4355531817,0,
1756958127.740373,0.9102318286895752,128,1295320,734710,13384400,65296.82352343419,195809.88140691142,0,
1756958127.7413733,0.9112322330474854,128,1268410,738475,13384432,37246.38947407818,191920.91469111267,0,
1756958127.7413733,0.9112322330474854,128,1229835,739980,13384464,26588.548757499688,191506.43084566167,0,
1756958127.743373,0.9132318496704102,128,1036920,764090,13384496,-134548.98307474115,188780.95705135906,0,
1756958127.743373,0.9132318496704102,128,733250,810950,13384528,-206489.63230012206,188825.35222936005,0,
1756958127.7443717,0.9142305850982666,128,557460,827400,13384560,-471773.58280853403,195753.71561666814,0,
1756958127.7443717,0.9142305850982666,128,407330,836670,13384592,-523614.319995901,196575.65343451538,0,
1756958127.7639005,0.9337594509124756,128,370115,832580,13384624,-220931.48313145875,204594.2131405455,0,
1756958127.7639005,0.9337594509124756,128,231085,822335,13384656,-249398.615864016,204706.53658689003,0,
1756958127.7639005,0.9337594509124756,128,150045,801050,13384688,-288274.566849143,204916.03941680642,0,
1756958127.7648993,0.934758186340332,128,175765,760005,13384720,-337875.6195082092,208171.73140262134,0,
1756958127.7648993,0.934758186340332,128,375020,736545,13384752,-297400.1118366817,208395.42457991806,0,
1756958127.7648993,0.934758186340332,128,652280,713690,13384784,-205068.87518759884,208387.08500903958,0,
1756958127.7659001,0.9357590675354004,128,1171480,673930,13384816,366968.3170573601,212278.29519550176,0,
1756958127.7659001,0.9357590675354004,128,1195755,695900,13384848,415251.39402987884,212787.14335752322,0,
1756958127.7684085,0.9382674694061279,128,1232805,712675,13384880,466510.92048647994,227834.05273847296,0,
1756958127.7684085,0.9382674694061279,128,1272695,723175,13384912,475491.54972763825,228454.92349857604,0,
1756958127.7694077,0.9392666816711426,128,1299230,725985,13384944,474567.98360045714,234484.13555908584,0,
1756958127.7694077,0.9392666816711426,128,1311330,731690,13384976,475832.626521492,235089.189808827,0,
1756958127.7714822,0.9413411617279053,128,1320015,732340,13385008,400687.6235965364,243295.21606636365,0,
1756958127.7714822,0.9413411617279053,128,1303725,734080,13385040,393256.57773855625,243671.1652128237,0,
1756958127.7714822,0.9413411617279053,128,1282455,736215,13385072,381829.4583247593,244017.52438022938,0,
1756958127.7714822,0.9413411617279053,128,1251870,739435,13385104,365329.26521068125,244321.64968899047,0,
1756958127.7724829,0.9423418045043945,128,1173095,745485,13385136,245175.74622490114,244342.60233792695,0,
1756958127.7724829,0.9423418045043945,128,866655,793385,13385168,168552.8508009796,244152.5994459619,0,
1756958127.7724829,0.9423418045043945,128,644615,824170,13385200,60764.631817599846,243692.85068713408,0,
1756958127.7724829,0.9423418045043945,128,436620,837875,13385232,-67665.6567496179,243251.55519223705,0,
1756958127.7734833,0.9433422088623047,128,405805,836245,13385264,-380417.2846115107,246615.71518743804,0,
1756958127.7734833,0.9433422088623047,128,320065,828575,13385296,-422110.1348999598,247055.6750315187,0,
1756958127.7734833,0.9433422088623047,128,130345,814825,13385328,-494354.20663423854,247675.6458749423,0,
1756958127.7734833,0.9433422088623047,128,212345,773735,13385360,-530772.7184189658,248385.36270867518,0,
1756958127.7734833,0.9433422088623047,128,251565,751625,13385392,-548821.9323917958,249138.54920070403,0,
1756958127.7734833,0.9433422088623047,128,505845,721950,13385424,-505863.76962883887,249782.15250237114,0,
1756958127.7744834,0.9443423748016357,128,979395,689545,13385456,-53648.11652394984,244972.8398194074,0,
1756958127.7744834,0.9443423748016357,128,1232200,679390,13385488,36341.07256157299,244449.805526104,0,
1756958127.7744834,0.9443423748016357,128,1211920,706950,13385520,101110.06462652667,244090.45660686176,0,
1756958127.7744834,0.9443423748016357,128,1254930,718680,13385552,160062.0456439852,243879.79961476976,0,
1756958127.7744834,0.9443423748016357,128,1288050,722070,13385584,212221.31331578808,243800.43263137082,0,
1756958127.7744834,0.9443423748016357,128,1308525,728675,13385616,256255.5288153211,243831.65722634128,0,
1756958127.775484,0.945343017578125,128,1312380,734665,13385648,339852.3839229973,246187.23237798875,0,
1756958127.775484,0.945343017578125,128,1315000,732120,13385680,345925.07167020004,246437.2724892118,0,
1756958127.7779918,0.9478507041931152,128,1294930,733940,13385712,274219.4474302359,248084.43279974314,0,
1756958127.7779918,0.9478507041931152,128,1267200,737330,13385744,265231.4128247826,248127.4198227529,0,
1756958127.7779918,0.9478507041931152,128,1226365,738745,13385776,248696.76276433555,248128.84715036946,0,
1756958127.7779918,0.9478507041931152,128,1015240,769345,13385808,189327.54120643748,247981.4338398083,1,0.8907252530781097
1756958127.7779918,0.9478507041931152,128,718625,814195,13385840,78532.28837992756,247556.62933754406,0,
1756958127.7779918,0.9478507041931152,128,538615,829835,13385872,-46169.808795653575,247051.75793302504,0,
1756958127.7789924,0.9488513469696045,128,404815,836605,13385904,-419642.597104397,251285.7468450068,0,
1756958127.780996,0.950855016708374,128,365125,830445,13385936,-464479.1367471617,261506.96140832285,0,
1756958127.7819953,0.9518542289733887,128,230745,822285,13385968,-519580.2008294254,267829.17074970616,0,
1756958127.7819953,0.9518542289733887,128,178660,797345,13386000,-533742.6198548013,268495.8086963649,0,
1756958127.7829952,0.9528541564941406,128,188710,761265,13386032,-516005.47449617495,274563.4683473596,0,
1756958127.7829952,0.9528541564941406,128,406740,734430,13386064,-465766.3175291611,275042.8088064557,0,
1756958127.7839968,0.9538557529449463,128,703410,710480,13386096,-115910.66938225273,271135.35874740774,0,
1756958127.7839968,0.9538557529449463,128,1200800,672930,13386128,19573.503506344103,270504.6998649783,0,
1756958127.784995,0.9548540115356445,128,1197510,698610,13386160,330186.8303325288,271965.41547739104,0,
1756958127.7859962,0.955855131149292,128,1237500,714715,13386192,401402.76113156724,275142.2412897072,0,
1756958127.7859962,0.955855131149292,128,1276090,723125,13386224,414182.0071813153,275490.8102859345,0,
1756958127.7859962,0.955855131149292,128,1302190,726935,13386256,428569.38908613665,275874.5742128522,0,
1756958127.7874985,0.9573574066162109,128,1312775,731610,13386288,415335.48911308154,280948.5286827847,0,
1756958127.7874985,0.9573574066162109,128,1322025,731540,13386320,415534.6951605392,281285.9326236961,0,
1756958127.7874985,0.9573574066162109,128,1303685,734735,13386352,410559.01516503486,281610.016804446,0,
1756958127.7885027,0.9583616256713867,128,1282250,738440,13386384,350905.0140023441,283315.88383240794,0,
1756958127.7935069,0.9633657932281494,128,1250220,739005,13386416,193961.60774811052,273333.41482057644,0,
1756958127.7935069,0.9633657932281494,128,1158960,747855,13386448,171150.44660275464,273077.2448361493,0,
1756958127.7940097,0.9638686180114746,128,846970,796805,13386480,-51643.361715380976,270313.8263245858,0,
1756958127.7940097,0.9638686180114746,128,638900,825075,13386512,-130909.1282565708,269964.3424530953,0,
1756958127.7940097,0.9638686180114746,128,432120,839190,13386544,-236591.04474321153,269880.6764830836,0,
1756958127.796013,0.965872049331665,128,402590,835495,13386576,-469992.54289886105,279473.63154151384,0,
1756958127.797014,0.9668729305267334,128,316840,827700,13386608,-514519.56265040074,285241.10547019856,0,
1756958127.797014,0.9668729305267334,128,134555,812305,13386640,-556217.9891422078,285920.4373126873,0,
1756958127.7975168,0.9673757553100586,128,218990,771495,13386672,-571622.279319204,289485.8977917324,0,
1756958127.7985206,0.9683794975280762,128,279910,747095,13386704,-491391.871730621,294454.0085830693,0,
1756958127.800526,0.9703848361968994,128,531565,720920,13386736,-217252.906917686,290749.7907839422,0,
1756958127.8035243,0.9733831882476807,128,1027025,685935,13386768,189239.1287864289,283636.31994362426,0,
1756958127.8035243,0.9733831882476807,128,1230545,682940,13386800,243462.50810675957,283535.60526551184,0,
1756958127.8035243,0.9733831882476807,128,1216245,707975,13386832,281430.42474609136,283530.3276339233,0,
1756958127.8035243,0.9733831882476807,128,1259000,720050,13386864,319199.36449179833,283619.74896093877,0,
1756958127.8035243,0.9733831882476807,128,1291865,724065,13386896,354558.88592799543,283797.5914911478,0,
1756958127.8045259,0.9743847846984863,128,1309865,728795,13386928,419171.5583290271,287121.66553821473,0,
1756958127.8045259,0.9743847846984863,128,1314565,734800,13386960,424014.6578109809,287464.8526300591,0,
1756958127.8045259,0.9743847846984863,128,1313530,731810,13386992,426358.1783950859,287813.0545047827,0,
1756958127.8045259,0.9743847846984863,128,1295170,736730,13387024,422999.45383475075,288151.9632134953,0,
1756958127.8045259,0.9743847846984863,128,1266280,738640,13387056,412967.50791451155,288464.8724653989,0,
1756958127.8055246,0.9753835201263428,128,1223295,738935,13387088,327476.1914069289,289420.116445161,0,
1756958127.8055246,0.9753835201263428,128,994075,773240,13387120,270092.20280080446,289371.6618795554,0,
1756958127.8055246,0.9753835201263428,128,705170,816285,13387152,162282.81014300446,289053.0535073576,0,
1756958127.808037,0.977895975112915,128,519495,832520,13387184,-249599.04378491692,286709.7052070489,0,
1756958127.808037,0.977895975112915,128,429245,839335,13387216,-281183.8646899355,286695.8520717965,0,
1756958127.808037,0.977895975112915,128,360015,831290,13387248,-319802.32467066735,286778.84911834943,0,
1756958127.808037,0.977895975112915,128,229300,819435,13387280,-377114.75315031304,287005.31882785866,0,
1756958127.8090355,0.9788944721221924,128,205125,794945,13387312,-494924.8622036651,292095.31949888717,0,
1756958127.8100398,0.9798986911773682,128,205345,757435,13387344,-481169.57102280325,296749.8478855485,0,
1756958127.8110397,0.9808986186981201,128,437915,731405,13387376,-285687.74042450916,296478.66210022,0,
1756958127.8110397,0.9808986186981201,128,757495,707175,13387408,-200287.04680971097,296237.51227828034,0,
1756958127.8130386,0.9828975200653076,128,1225085,673090,13387440,356523.99962089985,299121.3016049632,0,
1756958127.8140388,0.9838976860046387,128,1198445,699185,13387472,374289.64660636266,300964.47009517055,0,
1756958127.8140388,0.9838976860046387,128,1241070,716550,13387504,383912.16594599764,301172.4177632113,0,
1756958127.8150406,0.9848995208740234,128,1278465,721040,13387536,399072.8784948598,303576.89737075934,0,
1756958127.8170383,0.9868972301483154,128,1304150,726905,13387568,352115.53408333997,305897.41266256105,0,
1756958127.817541,0.9873998165130615,128,1313250,732820,13387600,340272.2604021817,306326.1980398466,0,
1756958127.818545,0.9884040355682373,128,1323260,730890,13387632,313174.9684026149,306494.79739068524,0,
1756958127.8195462,0.9894051551818848,128,1304170,736530,13387664,268520.6532083277,305562.7847568551,0,
1756958127.8205495,0.9904084205627441,128,1280485,736440,13387696,220384.15326573004,303467.8453141503,0,
1756958127.8215494,0.9914083480834961,128,1248975,739275,13387728,170396.2556074707,300205.61669391533,0,
1756958127.8235543,0.9934132099151611,128,1142895,749590,13387760,57216.56172261166,288549.29826847656,0,
1756958127.82506,0.9949188232421875,128,825915,796645,13387792,-179596.02109485582,284576.80542838963,0,
1756958127.8260648,0.9959237575531006,128,630745,825900,13387824,-329410.9838819895,285681.2759047398,0,
1756958127.8270652,0.9969241619110107,128,510980,831975,13387856,-415438.3117054387,288863.7284807929,0,
1756958127.827569,0.9974279403686523,128,399140,834720,13387888,-479508.1318895289,291247.360908334,0,
1756958127.8285728,0.9984316825866699,128,319365,825585,13387920,-521711.4095512091,296918.17343924224,0,
1756958127.8295732,0.9994320869445801,128,157210,812545,13387952,-594848.8193491045,304225.2928236379,0,
1756958127.8305767,1.0004355907440186,128,239455,770255,13387984,-508570.44409960514,309252.2572132309,0,
1756958127.8315763,1.0014352798461914,128,325185,746370,13388016,-390431.27545512386,311241.8849105475,0,
1756958127.8335762,1.0034351348876953,128,576040,717985,13388048,-125071.54043616832,302332.42673741817,0,
1756958127.8470948,1.016953706741333,128,1087020,684860,13388080,153104.19808548893,264488.5996630397,0,
1756958127.8480988,1.0179576873779297,128,1224775,684070,13388112,235655.80814806756,263778.9738541228,0,
1756958127.8480988,1.0179576873779297,128,1220895,709420,13388144,240497.03375486488,263720.6066493265,0,
1756958127.8490984,1.0189573764801025,128,1262785,720485,13388176,259396.4354136039,263614.62494315585,0,
1756958127.8490984,1.0189573764801025,128,1295175,725700,13388208,267193.2053698231,263623.5963491363,0,
1756958127.850102,1.019960880279541,128,1311095,728690,13388240,273628.76392574573,263869.72707847087,0,
1756958127.8511014,1.0209603309631348,128,1315730,734395,13388272,255607.2736306172,263667.2685858529,0,
1756958127.8511014,1.0209603309631348,128,1314050,734045,13388304,253154.10014997018,263640.9123521138,0,
1756958127.8531015,1.0229604244232178,128,1294895,737460,13388336,191047.63215109793,260166.45882851112,0,
1756958127.8531015,1.0229604244232178,128,1265695,739085,13388368,181777.91764964344,259969.94084001178,0,
1756958127.8541026,1.0239615440368652,128,1219795,741075,13388400,115121.33277014641,256414.87105185463,0,
1756958127.8541026,1.0239615440368652,128,973490,775905,13388432,56063.25780410888,255912.5948844974,0,
1756958127.8541026,1.0239615440368652,128,693605,819420,13388464,-50486.02041810385,255397.59592430078,0,
1756958127.8541026,1.0239615440368652,128,626210,823680,13388496,-147051.56143521247,255125.97529659842,0,
1756958127.8586526,1.0285115242004395,128,425740,838315,13388528,-417380.20663017663,271776.2891009102,0,
1756958127.8586526,1.0285115242004395,128,356345,831475,13388560,-435918.9726243375,272187.7904441908,0,
1756958127.8586526,1.0285115242004395,128,239050,820725,13388592,-474532.983267317,272695.0644625371,0,
1756958127.8586526,1.0285115242004395,128,240780,791860,13388624,-502587.3879178746,273271.39840494073,0,
1756958127.8586526,1.0285115242004395,128,236095,756210,13388656,-523831.6147623712,273899.546205321,0,
1756958127.8596568,1.0295157432556152,128,479650,729700,13388688,-369826.73221170454,276261.0301552536,0,
1756958127.8596568,1.0295157432556152,128,823950,706160,13388720,-282058.9280557025,276275.56533113244,0,
1756958127.8596568,1.0295157432556152,128,1245850,672405,13388752,-121873.11343258098,275888.482489557,0,
1756958127.8596568,1.0295157432556152,128,1202625,704245,13388784,-7621.431299317963,275215.9441250496,0,
1756958127.8596568,1.0295157432556152,128,1245730,716445,13388816,89745.60111434439,274750.9749065055,0,
1756958127.8596568,1.0295157432556152,128,1282860,723305,13388848,172546.05088168342,274494.749879454,0,
1756958127.862657,1.0325160026550293,128,1307235,728840,13388880,336360.41930602374,278832.61889110785,0,
1756958127.862657,1.0325160026550293,128,1314515,730970,13388912,341228.73223963653,278989.04428825167,0,
1756958127.8636556,1.0335144996643066,128,1325440,731750,13388944,331601.93489156786,280277.04080905777,0,
1756958127.8636556,1.0335144996643066,128,1304710,735340,13388976,325439.92979122495,280390.26297092123,0,
1756958127.8636556,1.0335144996643066,128,1279910,736665,13389008,314406.9345604646,280475.5418621429,0,
1756958127.8636556,1.0335144996643066,128,1247925,739685,13389040,298089.85518568417,280519.7004773063,0,
1756958127.8636556,1.0335144996643066,128,1125170,752000,13389072,257989.87720861885,280463.2188094066,0,
1756958127.8636556,1.0335144996643066,128,808020,801260,13389104,157372.10288102413,280154.632654586,0,
1756958127.8646557,1.0345146656036377,128,688285,819830,13389136,-167732.06947883236,277397.97057788284,0,
1756958127.8646557,1.0345146656036377,128,494455,831865,13389168,-234492.93539805984,277290.40879546886,0,
1756958127.8656557,1.0355145931243896,128,396090,835675,13389200,-434662.0393594307,281148.34900923213,0,
1756958127.8656557,1.0355145931243896,128,314340,826735,13389232,-466681.01092519786,281613.4744596147,0,
1756958127.8656557,1.0355145931243896,128,157710,810405,13389264,-524151.99101297493,282221.5120718714,0,
1756958127.8656557,1.0355145931243896,128,231635,767925,13389296,-550872.9329318948,282895.0140409211,0,
1756958127.8656557,1.0355145931243896,128,340155,745440,13389328,-546315.3702602631,283555.40187000297,0,
1756958127.8656557,1.0355145931243896,128,586720,718420,13389360,-487638.4523337699,284067.03265124734,0,
1756958127.8656557,1.0355145931243896,128,1110365,681710,13389392,-327139.0782821097,284175.01312442153,0,
1756958127.8721652,1.0420241355895996,128,1218460,686460,13389424,165011.6427715863,267420.6315550098,0,
1756958127.8986902,1.0685491561889648,128,1225835,710380,13389456,47519.8897350559,179461.93300324157,0,
1756958127.9017508,1.0716097354888916,128,1267230,720640,13389488,61472.995822297744,171034.3887556385,0,
1756958127.9022534,1.0721123218536377,128,1298485,724745,13389520,77475.15021833127,169867.34843305606,0,
1756958127.9022534,1.0721123218536377,128,1314505,731280,13389552,83201.87972077786,169650.08040730178,0,
1756958127.9022534,1.0721123218536377,128,1317640,732750,13389584,88065.75676790025,169445.55067714505,0,
1756958127.9022534,1.0721123218536377,128,1313565,733785,13389616,90682.50375819395,169248.09381271288,0,
1756958127.9022534,1.0721123218536377,128,1294530,736915,13389648,88305.44538040039,169045.1727452391,0,
1756958127.9022534,1.0721123218536377,128,1265470,741145,13389680,79907.84217444065,168821.7078275287,0,
1756958127.9032571,1.0731160640716553,128,1215135,741020,13389712,20736.31256239282,165177.909499507,0,
1756958127.9032571,1.0731160640716553,128,952900,779475,13389744,-40943.77485237884,164866.45782714966,0,
1756958127.9032571,1.0731160640716553,128,799385,805185,13389776,-121737.49544307782,164758.3346651885,0,
1756958127.9032571,1.0731160640716553,128,616475,825590,13389808,-223424.73116712703,164905.40976136562,0,
1756958127.9032571,1.0731160640716553,128,423350,836800,13389840,-343143.4620806207,165352.24781944221,0,
1756958127.9032571,1.0731160640716553,128,352395,829635,13389872,-449822.6121473469,166065.40745916349,0,
1756958127.9052572,1.0751161575317383,128,202670,819955,13389904,-730933.0934696005,193101.0575440427,0,
1756958127.9052572,1.0751161575317383,128,229890,788200,13389936,-733829.1239994513,194456.64842948204,0,
1756958127.9052572,1.0751161575317383,128,223025,756090,13389968,-735545.799904566,195813.14454546498,0,
1756958127.9052572,1.0751161575317383,128,475090,727655,13390000,-679984.5333792234,197026.94934386574,0,
1756958127.9052572,1.0751161575317383,128,844410,704485,13390032,-554952.0320662148,197924.25800954888,0,
1756958127.907766,1.077625036239624,128,1243575,674240,13390064,122296.17861308495,193438.38615968506,0,
1756958127.908772,1.0786309242248535,128,1205055,703370,13390096,149550.35991667295,192356.2230159594,0,
1756958127.9097757,1.079634666442871,128,1248425,715635,13390128,171934.33323207227,191853.72074207655,0,
1756958127.9107764,1.0806353092193604,128,1286115,724690,13390160,187658.1340408443,191750.79484138818,0,
1756958127.9117773,1.0816361904144287,128,1308310,727880,13390192,190381.96464447764,191717.20697013155,0,
1756958127.912776,1.0826349258422852,128,1314390,732960,13390224,179325.19717602726,191413.7721446976,0,
1756958127.913776,1.083634853363037,128,1323765,731490,13390256,168120.64773435588,190842.74494592735,0,
1756958127.915775,1.0856339931488037,128,1303895,736835,13390288,123254.97033983553,187609.33316225026,0,
1756958127.915775,1.0856339931488037,128,1279010,739915,13390320,115772.84876564721,187429.2410058945,0,
1756958127.9172783,1.087137222290039,128,1244135,740935,13390352,59116.26647729506,182758.02221282598,0,
1756958127.918282,1.0881409645080566,128,1104600,755375,13390384,-46155.06282731897,179396.7614070555,0,
1756958127.9192815,1.0891404151916504,128,941455,781835,13390416,-173748.77045137802,179258.36622668646,0,
1756958127.9202852,1.090144157409668,128,676950,820855,13390448,-362687.07660116197,183771.82433629283,0,
1756958127.921285,1.0911438465118408,128,477855,836385,13390480,-507127.6170436748,191696.99583000748,0,
1756958127.9232862,1.0931451320648193,128,390485,834180,13390512,-514552.47525664076,207158.24677402692,0,
1756958127.9252858,1.0951447486877441,128,288065,824890,13390544,-497192.53009342577,221036.69234300018,0,
1756958127.9257903,1.095649242401123,128,136670,807665,13390576,-561764.6407565988,225302.79635447866,0,
1756958127.9343011,1.1041600704193115,128,199630,764655,13390608,-274824.6619313433,234029.00520569945,0,
1756958127.937803,1.1076619625091553,128,333285,742080,13390640,-106727.2462650027,223731.23303962473,0,
1756958127.937803,1.1076619625091553,128,581445,715695,13390672,-48718.821307403356,223292.4815767348,0,
1756958127.938807,1.108665943145752,128,1111980,679985,13390704,438412.5149538473,228586.96468705745,0,
1756958127.9408162,1.1106750965118408,128,1211735,690790,13390736,547492.5456269738,243916.21299618215,0,
1756958127.9418123,1.1116712093353271,128,1228385,710840,13390768,526057.9796320929,250807.13061531755,0,
1756958127.9418123,1.1116712093353271,128,1269315,721195,13390800,531872.1038393959,251511.75303008585,0,
1756958127.9428108,1.1126697063446045,128,1299835,727090,13390832,521601.7768068204,258123.72600742572,0,
1756958127.9448109,1.1146697998046875,128,1314745,730930,13390864,440231.64840255125,266839.76020356134,0,
1756958127.9458096,1.115668535232544,128,1319940,733390,13390896,397947.0358823513,270050.0960546225,0,
1756958127.9458096,1.115668535232544,128,1311245,733665,13390928,391706.0399221039,270355.0842712456,0,
1756958127.9458096,1.115668535232544,128,1292775,738550,13390960,381808.90538972954,270634.49603739637,0,
1756958127.9458096,1.115668535232544,128,1262620,740235,13390992,366580.3150845188,270875.02965468925,0,
1756958127.9458096,1.115668535232544,128,1207825,742570,13391024,341924.90626234637,271053.1498062329,0,
1756958127.9483159,1.1181747913360596,128,930920,782480,13391056,27502.44284063205,256621.17053950118,0,
1756958127.9508207,1.1206796169281006,128,779330,807750,13391088,-108872.05254777404,247870.76598611922,0,
1756958127.9508207,1.1206796169281006,128,601660,824750,13391120,-151442.10108430573,247629.02188710682,0,
1756958127.9508207,1.1206796169281006,128,420190,837360,13391152,-223306.0439863917,247568.04482822196,0,
1756958127.9508207,1.1206796169281006,128,345330,829230,13391184,-294319.4661546515,247685.24939843576,0,
1756958127.9508207,1.1206796169281006,128,173400,817490,13391216,-385614.523193317,248031.0344205029,0,
1756958127.9508207,1.1206796169281006,128,223190,783445,13391248,-444009.5727075091,248522.3474052072,0,
1756958127.9508207,1.1206796169281006,128,220150,755780,13391280,-488415.33992848423,249123.75275906103,0,
1756958127.9518209,1.1216797828674316,128,478945,725830,13391312,-381358.2710677203,252366.21469512908,0,
1756958127.9518209,1.1216797828674316,128,878740,699965,13391344,-285044.56118135626,252448.13844090086,0,
1756958127.9518209,1.1216797828674316,128,1244590,674610,13391376,-130472.31133919195,252142.3482855148,0,
1756958127.9518209,1.1216797828674316,128,1207585,705335,13391408,-19165.010910629484,251558.28029524087,0,
1756958127.954821,1.1246800422668457,128,1252130,719095,13391440,270203.59256598126,252865.64386313784,0,
1756958127.954821,1.1246800422668457,128,1287170,723475,13391472,284517.7020360328,252944.9947313956,0,
1756958127.954821,1.1246800422668457,128,1310210,729320,13391504,299775.36336915597,253062.3972204198,0,
1756958127.955822,1.125680923461914,128,1314815,732475,13391536,313469.28763699473,254544.6401333129,0,
1756958127.955822,1.125680923461914,128,1323725,733015,13391568,315604.73687517334,254697.71617234653,0,
1756958127.955822,1.125680923461914,128,1302800,737205,13391600,311830.422101366,254840.9463470359,0,
1756958127.955822,1.125680923461914,128,1276890,739110,13391632,302431.3181783265,254960.2541438589,0,
1756958127.9573274,1.1271862983703613,128,1241325,739400,13391664,216620.13167826724,253562.56674015694,0,
1756958127.9573274,1.1271862983703613,128,1083895,758080,13391696,177368.66578426445,253371.55065634433,0,
1756958127.9573274,1.1271862983703613,128,920875,784255,13391728,111176.5412157305,253015.07154843298,0,
1756958127.9573274,1.1271862983703613,128,669195,823760,13391760,5123.778572958778,252393.61466800852,0,
1756958127.9573274,1.1271862983703613,128,464890,835590,13391792,-121014.90960962951,252064.2517475938,0,
1756958127.9583333,1.1281921863555908,128,385895,831035,13391824,-455883.57749530545,257089.89954232244,0,
1756958127.9583333,1.1281921863555908,128,276915,826460,13391856,-503990.61451251,257708.87307002564,0,
1756958127.9583333,1.1281921863555908,128,149120,804840,13391888,-567468.8482567823,258485.43309175648,0,
1756958127.9623358,1.1321947574615479,128,200385,763980,13391920,-498889.5571038563,280458.620674032,0,
